timestamp_utc,t_rel_sec,ecg_mV,event
2025-09-25T05:45:28.290609+00:00,0.000000,0.000000,
2025-09-25T05:45:28.295609+00:00,0.005000,0.000000,
2025-09-25T05:45:28.300609+00:00,0.010000,-0.001140,
2025-09-25T05:45:28.305609+00:00,0.015000,-0.001900,
2025-09-25T05:45:28.310609+00:00,0.020000,0.017860,
2025-09-25T05:45:28.315609+00:00,0.025000,-0.028120,
2025-09-25T05:45:28.320609+00:00,0.030000,-0.096900,
2025-09-25T05:45:28.325609+00:00,0.035000,0.285760,
2025-09-25T05:45:28.330609+00:00,0.040000,0.224960,
2025-09-25T05:45:28.335609+00:00,0.045000,-1.284020,
2025-09-25T05:45:28.340609+00:00,0.050000,-1.076160,
2025-09-25T05:45:28.345609+00:00,0.055000,2.603380,
2025-09-25T05:45:28.350609+00:00,0.060000,2.815800,
2025-09-25T05:45:28.355609+00:00,0.065000,-8.706940,
2025-09-25T05:45:28.360609+00:00,0.070000,-29.540440,
2025-09-25T05:45:28.365609+00:00,0.075000,-47.284160,
2025-09-25T05:45:28.370609+00:00,0.080000,-48.146380,
2025-09-25T05:45:28.375609+00:00,0.085000,-47.395880,
2025-09-25T05:45:28.380609+00:00,0.090000,-41.847120,
2025-09-25T05:45:28.385609+00:00,0.095000,-38.246620,
2025-09-25T05:45:28.390609+00:00,0.100000,-35.849960,
2025-09-25T05:45:28.395609+00:00,0.105000,-34.508180,
2025-09-25T05:45:28.400609+00:00,0.110000,-34.472840,
2025-09-25T05:45:28.405609+00:00,0.115000,-34.231920,
2025-09-25T05:45:28.410609+00:00,0.120000,-33.435060,
2025-09-25T05:45:28.415609+00:00,0.125000,-32.827820,
2025-09-25T05:45:28.420609+00:00,0.130000,-32.390820,
2025-09-25T05:45:28.425609+00:00,0.135000,-31.894540,
2025-09-25T05:45:28.430609+00:00,0.140000,-31.388380,
2025-09-25T05:45:28.435609+00:00,0.145000,-30.901220,
2025-09-25T05:45:28.440609+00:00,0.150000,-30.421280,
2025-09-25T05:45:28.445609+00:00,0.155000,-29.947040,
2025-09-25T05:45:28.450609+00:00,0.160000,-29.483820,
2025-09-25T05:45:28.455609+00:00,0.165000,-29.025920,
2025-09-25T05:45:28.460609+00:00,0.170000,-28.575240,
2025-09-25T05:45:28.465609+00:00,0.175000,-28.130260,
2025-09-25T05:45:28.470609+00:00,0.180000,-27.691360,
2025-09-25T05:45:28.475609+00:00,0.185000,-27.260440,
2025-09-25T05:45:28.480609+00:00,0.190000,-26.837120,
2025-09-25T05:45:28.485609+00:00,0.195000,-26.420640,
2025-09-25T05:45:28.490609+00:00,0.200000,-26.009480,
2025-09-25T05:45:28.495609+00:00,0.205000,-25.605540,
2025-09-25T05:45:28.500609+00:00,0.210000,-25.208820,
2025-09-25T05:45:28.505609+00:00,0.215000,-24.816280,
2025-09-25T05:45:28.510609+00:00,0.220000,-24.427540,
2025-09-25T05:45:28.515609+00:00,0.225000,-24.043740,
2025-09-25T05:45:28.520609+00:00,0.230000,-23.665640,
2025-09-25T05:45:28.525609+00:00,0.235000,-23.298180,
2025-09-25T05:45:28.530609+00:00,0.240000,-22.937560,
2025-09-25T05:45:28.535609+00:00,0.245000,-22.583020,
2025-09-25T05:45:28.540609+00:00,0.250000,-22.231140,
2025-09-25T05:45:28.545609+00:00,0.255000,-21.885340,
2025-09-25T05:45:28.550609+00:00,0.260000,-21.545240,
2025-09-25T05:45:28.555609+00:00,0.265000,-21.210080,
2025-09-25T05:45:28.560609+00:00,0.270000,-20.879480,
2025-09-25T05:45:28.565609+00:00,0.275000,-20.554580,
2025-09-25T05:45:28.570609+00:00,0.280000,-20.235380,
2025-09-25T05:45:28.575609+00:00,0.285000,-19.921500,
2025-09-25T05:45:28.580609+00:00,0.290000,-19.611420,
2025-09-25T05:45:28.585609+00:00,0.295000,-19.305520,
2025-09-25T05:45:28.590609+00:00,0.300000,-19.005320,
2025-09-25T05:45:28.595609+00:00,0.305000,-18.711960,
2025-09-25T05:45:28.600609+00:00,0.310000,-18.422400,
2025-09-25T05:45:28.605609+00:00,0.315000,-18.134360,
2025-09-25T05:45:28.610609+00:00,0.320000,-17.851640,
2025-09-25T05:45:28.615609+00:00,0.325000,-17.573100,
2025-09-25T05:45:28.620609+00:00,0.330000,-17.300260,
2025-09-25T05:45:28.625609+00:00,0.335000,-17.032360,
2025-09-25T05:45:28.630609+00:00,0.340000,-16.767120,
2025-09-25T05:45:28.635609+00:00,0.345000,-16.506440,
2025-09-25T05:45:28.640609+00:00,0.350000,-16.249940,
2025-09-25T05:45:28.645609+00:00,0.355000,-15.997240,
2025-09-25T05:45:28.650609+00:00,0.360000,-15.747960,
2025-09-25T05:45:28.655609+00:00,0.365000,-15.501340,
2025-09-25T05:45:28.660609+00:00,0.370000,-15.258140,
2025-09-25T05:45:28.665609+00:00,0.375000,-15.020260,
2025-09-25T05:45:28.670609+00:00,0.380000,-14.786560,
2025-09-25T05:45:28.675609+00:00,0.385000,-14.557040,
2025-09-25T05:45:28.680609+00:00,0.390000,-14.330560,
2025-09-25T05:45:28.685609+00:00,0.395000,-14.106360,
2025-09-25T05:45:28.690609+00:00,0.400000,-13.885960,
2025-09-25T05:45:28.695609+00:00,0.405000,-13.669360,
2025-09-25T05:45:28.700609+00:00,0.410000,-13.454660,
2025-09-25T05:45:28.705609+00:00,0.415000,-13.243380,
2025-09-25T05:45:28.710609+00:00,0.420000,-13.035140,
2025-09-25T05:45:28.715609+00:00,0.425000,-12.830700,
2025-09-25T05:45:28.720609+00:00,0.430000,-12.628160,
2025-09-25T05:45:28.725609+00:00,0.435000,-12.427140,
2025-09-25T05:45:28.730609+00:00,0.440000,-12.229540,
2025-09-25T05:45:28.735609+00:00,0.445000,-12.034220,
2025-09-25T05:45:28.740609+00:00,0.450000,-11.841560,
2025-09-25T05:45:28.745609+00:00,0.455000,-11.647760,
2025-09-25T05:45:28.750609+00:00,0.460000,-11.453960,
2025-09-25T05:45:28.755609+00:00,0.465000,-11.266240,
2025-09-25T05:45:28.760609+00:00,0.470000,-11.084980,
2025-09-25T05:45:28.765609+00:00,0.475000,-10.908280,
2025-09-25T05:45:28.770609+00:00,0.480000,-10.732340,
2025-09-25T05:45:28.775609+00:00,0.485000,-10.552600,
2025-09-25T05:45:28.780609+00:00,0.490000,-10.375900,
2025-09-25T05:45:28.785609+00:00,0.495000,-10.205660,
2025-09-25T05:45:28.790609+00:00,0.500000,-10.040740,
2025-09-25T05:45:28.795609+00:00,0.505000,-9.879240,
2025-09-25T05:45:28.800609+00:00,0.510000,-9.719640,
2025-09-25T05:45:28.805609+00:00,0.515000,-9.563460,
2025-09-25T05:45:28.810609+00:00,0.520000,-9.410700,
2025-09-25T05:45:28.815609+00:00,0.525000,-9.261740,
2025-09-25T05:45:28.820609+00:00,0.530000,-9.115820,
2025-09-25T05:45:28.825609+00:00,0.535000,-8.972940,
2025-09-25T05:45:28.830609+00:00,0.540000,-8.832340,
2025-09-25T05:45:28.835609+00:00,0.545000,-8.694020,
2025-09-25T05:45:28.840609+00:00,0.550000,-8.559880,
2025-09-25T05:45:28.845609+00:00,0.555000,-8.426120,
2025-09-25T05:45:28.850609+00:00,0.560000,-8.295400,
2025-09-25T05:45:28.855609+00:00,0.565000,-8.165440,
2025-09-25T05:45:28.860609+00:00,0.570000,-8.038900,
2025-09-25T05:45:28.865609+00:00,0.575000,-7.913120,
2025-09-25T05:45:28.870609+00:00,0.580000,-7.789240,
2025-09-25T05:45:28.875609+00:00,0.585000,-7.668020,
2025-09-25T05:45:28.880609+00:00,0.590000,-7.548700,
2025-09-25T05:45:28.885609+00:00,0.595000,-7.430520,
2025-09-25T05:45:28.890609+00:00,0.600000,-7.314240,
2025-09-25T05:45:28.895609+00:00,0.605000,-7.200240,
2025-09-25T05:45:28.900609+00:00,0.610000,-7.090040,
2025-09-25T05:45:28.905609+00:00,0.615000,-6.979840,
2025-09-25T05:45:28.910609+00:00,0.620000,-6.870400,
2025-09-25T05:45:28.915609+00:00,0.625000,-6.762480,
2025-09-25T05:45:28.920609+00:00,0.630000,-6.658360,
2025-09-25T05:45:28.925609+00:00,0.635000,-6.554240,
2025-09-25T05:45:28.930609+00:00,0.640000,-6.450500,
2025-09-25T05:45:28.935609+00:00,0.645000,-6.345240,
2025-09-25T05:45:28.940609+00:00,0.650000,-6.246440,
2025-09-25T05:45:28.945609+00:00,0.655000,-6.140040,
2025-09-25T05:45:28.950609+00:00,0.660000,-6.031740,
2025-09-25T05:45:28.955609+00:00,0.665000,-5.973600,
2025-09-25T05:45:28.960609+00:00,0.670000,-5.882780,
2025-09-25T05:45:28.965609+00:00,0.675000,-5.586380,
2025-09-25T05:45:28.970609+00:00,0.680000,-5.378520,
2025-09-25T05:45:28.975609+00:00,0.685000,-5.671880,
2025-09-25T05:45:28.980609+00:00,0.690000,-5.781320,
2025-09-25T05:45:28.985609+00:00,0.695000,-3.991520,
2025-09-25T05:45:28.990609+00:00,0.700000,0.625480,
2025-09-25T05:45:28.995609+00:00,0.705000,6.899280,
2025-09-25T05:45:29.000609+00:00,0.710000,12.606880,
2025-09-25T05:45:29.005609+00:00,0.715000,16.586240,
2025-09-25T05:45:29.010609+00:00,0.720000,19.297920,
2025-09-25T05:45:29.015609+00:00,0.725000,21.504580,
2025-09-25T05:45:29.020609+00:00,0.730000,23.297800,
2025-09-25T05:45:29.025609+00:00,0.735000,24.584480,
2025-09-25T05:45:29.030609+00:00,0.740000,25.494200,
2025-09-25T05:45:29.035609+00:00,0.745000,26.145520,
2025-09-25T05:45:29.040609+00:00,0.750000,26.581380,
2025-09-25T05:45:29.045609+00:00,0.755000,26.846620,
2025-09-25T05:45:29.050609+00:00,0.760000,26.977340,
2025-09-25T05:45:29.055609+00:00,0.765000,27.004320,
2025-09-25T05:45:29.060609+00:00,0.770000,26.950360,
2025-09-25T05:45:29.065609+00:00,0.775000,26.832560,
2025-09-25T05:45:29.070609+00:00,0.780000,26.663080,
2025-09-25T05:45:29.075609+00:00,0.785000,26.451420,
2025-09-25T05:45:29.080609+00:00,0.790000,26.208980,
2025-09-25T05:45:29.085609+00:00,0.795000,25.946020,
2025-09-25T05:45:29.090609+00:00,0.800000,25.672420,
2025-09-25T05:45:29.095609+00:00,0.805000,25.382480,
2025-09-25T05:45:29.100609+00:00,0.810000,25.079620,
2025-09-25T05:45:29.105609+00:00,0.815000,24.767640,
2025-09-25T05:45:29.110609+00:00,0.820000,24.448820,
2025-09-25T05:45:29.115609+00:00,0.825000,24.128480,
2025-09-25T05:45:29.120609+00:00,0.830000,23.812320,
2025-09-25T05:45:29.125609+00:00,0.835000,23.495780,
2025-09-25T05:45:29.130609+00:00,0.840000,23.177720,
2025-09-25T05:45:29.135609+00:00,0.845000,22.856620,
2025-09-25T05:45:29.140609+00:00,0.850000,22.532100,
2025-09-25T05:45:29.145609+00:00,0.855000,22.201500,
2025-09-25T05:45:29.150609+00:00,0.860000,21.872420,
2025-09-25T05:45:29.155609+00:00,0.865000,21.554740,
2025-09-25T05:45:29.160609+00:00,0.870000,21.250740,
2025-09-25T05:45:29.165609+00:00,0.875000,20.953200,
2025-09-25T05:45:29.170609+00:00,0.880000,20.651860,
2025-09-25T05:45:29.175609+00:00,0.885000,20.345960,
2025-09-25T05:45:29.180609+00:00,0.890000,20.042720,
2025-09-25T05:45:29.185609+00:00,0.895000,19.747840,
2025-09-25T05:45:29.190609+00:00,0.900000,19.452200,
2025-09-25T05:45:29.195609+00:00,0.905000,19.162640,
2025-09-25T05:45:29.200609+00:00,0.910000,18.881060,
2025-09-25T05:45:29.205609+00:00,0.915000,18.607460,
2025-09-25T05:45:29.210609+00:00,0.920000,18.331580,
2025-09-25T05:45:29.215609+00:00,0.925000,18.052660,
2025-09-25T05:45:29.220609+00:00,0.930000,17.776020,
2025-09-25T05:45:29.225609+00:00,0.935000,17.506220,
2025-09-25T05:45:29.230609+00:00,0.940000,17.239080,
2025-09-25T05:45:29.235609+00:00,0.945000,16.979540,
2025-09-25T05:45:29.240609+00:00,0.950000,16.724940,
2025-09-25T05:45:29.245609+00:00,0.955000,16.475660,
2025-09-25T05:45:29.250609+00:00,0.960000,16.226000,
2025-09-25T05:45:29.255609+00:00,0.965000,15.973680,
2025-09-25T05:45:29.260609+00:00,0.970000,15.731620,
2025-09-25T05:45:29.265609+00:00,0.975000,15.503240,
2025-09-25T05:45:29.270609+00:00,0.980000,15.279800,
2025-09-25T05:45:29.275609+00:00,0.985000,15.051040,
2025-09-25T05:45:29.280609+00:00,0.990000,14.818100,
2025-09-25T05:45:29.285609+00:00,0.995000,14.592000,
2025-09-25T05:45:29.290609+00:00,1.000000,14.369320,
2025-09-25T05:45:29.295609+00:00,1.005000,14.150440,
2025-09-25T05:45:29.300609+00:00,1.010000,13.939160,
2025-09-25T05:45:29.305609+00:00,1.015000,13.736620,
2025-09-25T05:45:29.310609+00:00,1.020000,13.533700,
2025-09-25T05:45:29.315609+00:00,1.025000,13.322040,
2025-09-25T05:45:29.320609+00:00,1.030000,13.113800,
2025-09-25T05:45:29.325609+00:00,1.035000,12.921520,
2025-09-25T05:45:29.330609+00:00,1.040000,12.741020,
2025-09-25T05:45:29.335609+00:00,1.045000,12.557100,
2025-09-25T05:45:29.340609+00:00,1.050000,12.364820,
2025-09-25T05:45:29.345609+00:00,1.055000,12.168360,
2025-09-25T05:45:29.350609+00:00,1.060000,11.976840,
2025-09-25T05:45:29.355609+00:00,1.065000,11.790640,
2025-09-25T05:45:29.360609+00:00,1.070000,11.609760,
2025-09-25T05:45:29.365609+00:00,1.075000,11.432680,
2025-09-25T05:45:29.370609+00:00,1.080000,11.259020,
2025-09-25T05:45:29.375609+00:00,1.085000,11.087260,
2025-09-25T05:45:29.380609+00:00,1.090000,10.918540,
2025-09-25T05:45:29.385609+00:00,1.095000,10.755900,
2025-09-25T05:45:29.390609+00:00,1.100000,10.593260,
2025-09-25T05:45:29.395609+00:00,1.105000,10.424540,
2025-09-25T05:45:29.400609+00:00,1.110000,10.255820,
2025-09-25T05:45:29.405609+00:00,1.115000,10.092040,
2025-09-25T05:45:29.410609+00:00,1.120000,9.935100,
2025-09-25T05:45:29.415609+00:00,1.125000,9.781960,
2025-09-25T05:45:29.420609+00:00,1.130000,9.634520,
2025-09-25T05:45:29.425609+00:00,1.135000,9.491260,
2025-09-25T05:45:29.430609+00:00,1.140000,9.343820,
2025-09-25T05:45:29.435609+00:00,1.145000,9.188400,
2025-09-25T05:45:29.440609+00:00,1.150000,9.034120,
2025-09-25T05:45:29.445609+00:00,1.155000,8.895800,
2025-09-25T05:45:29.450609+00:00,1.160000,8.773060,
2025-09-25T05:45:29.455609+00:00,1.165000,8.651080,
2025-09-25T05:45:29.460609+00:00,1.170000,8.519600,
2025-09-25T05:45:29.465609+00:00,1.175000,8.380520,
2025-09-25T05:45:29.470609+00:00,1.180000,8.244480,
2025-09-25T05:45:29.475609+00:00,1.185000,8.117180,
2025-09-25T05:45:29.480609+00:00,1.190000,7.995960,
2025-09-25T05:45:29.485609+00:00,1.195000,7.877400,
2025-09-25T05:45:29.490609+00:00,1.200000,7.758080,
2025-09-25T05:45:29.495609+00:00,1.205000,7.638000,
2025-09-25T05:45:29.500609+00:00,1.210000,7.520580,
2025-09-25T05:45:29.505609+00:00,1.215000,7.405060,
2025-09-25T05:45:29.510609+00:00,1.220000,7.294480,
2025-09-25T05:45:29.515609+00:00,1.225000,7.186180,
2025-09-25T05:45:29.520609+00:00,1.230000,7.079400,
2025-09-25T05:45:29.525609+00:00,1.235000,6.973000,
2025-09-25T05:45:29.530609+00:00,1.240000,6.865460,
2025-09-25T05:45:29.535609+00:00,1.245000,6.756400,
2025-09-25T05:45:29.540609+00:00,1.250000,6.651140,
2025-09-25T05:45:29.545609+00:00,1.255000,6.548540,
2025-09-25T05:45:29.550609+00:00,1.260000,6.448980,
2025-09-25T05:45:29.555609+00:00,1.265000,6.349040,
2025-09-25T05:45:29.560609+00:00,1.270000,6.250620,
2025-09-25T05:45:29.565609+00:00,1.275000,6.150300,
2025-09-25T05:45:29.570609+00:00,1.280000,6.054920,
2025-09-25T05:45:29.575609+00:00,1.285000,5.963340,
2025-09-25T05:45:29.580609+00:00,1.290000,5.875560,
2025-09-25T05:45:29.585609+00:00,1.295000,5.788540,
2025-09-25T05:45:29.590609+00:00,1.300000,5.701520,
2025-09-25T05:45:29.595609+00:00,1.305000,5.609560,
2025-09-25T05:45:29.600609+00:00,1.310000,5.518360,
2025-09-25T05:45:29.605609+00:00,1.315000,5.430960,
2025-09-25T05:45:29.610609+00:00,1.320000,5.346980,
2025-09-25T05:45:29.615609+00:00,1.325000,5.266800,
2025-09-25T05:45:29.620609+00:00,1.330000,5.192320,
2025-09-25T05:45:29.625609+00:00,1.335000,5.121640,
2025-09-25T05:45:29.630609+00:00,1.340000,5.046400,
2025-09-25T05:45:29.635609+00:00,1.345000,4.967360,
2025-09-25T05:45:29.640609+00:00,1.350000,4.883000,
2025-09-25T05:45:29.645609+00:00,1.355000,4.804340,
2025-09-25T05:45:29.650609+00:00,1.360000,4.734040,
2025-09-25T05:45:29.655609+00:00,1.365000,4.667920,
2025-09-25T05:45:29.660609+00:00,1.370000,4.596100,
2025-09-25T05:45:29.665609+00:00,1.375000,4.522380,
2025-09-25T05:45:29.670609+00:00,1.380000,4.450560,
2025-09-25T05:45:29.675609+00:00,1.385000,4.385580,
2025-09-25T05:45:29.680609+00:00,1.390000,4.324400,
2025-09-25T05:45:29.685609+00:00,1.395000,4.260940,
2025-09-25T05:45:29.690609+00:00,1.400000,4.188740,
2025-09-25T05:45:29.695609+00:00,1.405000,4.113120,
2025-09-25T05:45:29.700609+00:00,1.410000,4.041300,
2025-09-25T05:45:29.705609+00:00,1.415000,3.978220,
2025-09-25T05:45:29.710609+00:00,1.420000,3.923880,
2025-09-25T05:45:29.715609+00:00,1.425000,3.870680,
2025-09-25T05:45:29.720609+00:00,1.430000,3.810640,
2025-09-25T05:45:29.725609+00:00,1.435000,3.747180,
2025-09-25T05:45:29.730609+00:00,1.440000,3.691320,
2025-09-25T05:45:29.735609+00:00,1.445000,3.645720,
2025-09-25T05:45:29.740609+00:00,1.450000,3.597080,
2025-09-25T05:45:29.745609+00:00,1.455000,3.537040,
2025-09-25T05:45:29.750609+00:00,1.460000,3.475100,
2025-09-25T05:45:29.755609+00:00,1.465000,3.420000,
2025-09-25T05:45:29.760609+00:00,1.470000,3.373640,
2025-09-25T05:45:29.765609+00:00,1.475000,3.326140,
2025-09-25T05:45:29.770609+00:00,1.480000,3.274080,
2025-09-25T05:45:29.775609+00:00,1.485000,3.219360,
2025-09-25T05:45:29.780609+00:00,1.490000,3.163500,
2025-09-25T05:45:29.785609+00:00,1.495000,3.107640,
2025-09-25T05:45:29.790609+00:00,1.500000,3.055580,
2025-09-25T05:45:29.795609+00:00,1.505000,3.013020,
2025-09-25T05:45:29.800609+00:00,1.510000,2.973120,
2025-09-25T05:45:29.805609+00:00,1.515000,2.929800,
2025-09-25T05:45:29.810609+00:00,1.520000,2.883820,
2025-09-25T05:45:29.815609+00:00,1.525000,2.838600,
2025-09-25T05:45:29.820609+00:00,1.530000,2.796800,
2025-09-25T05:45:29.825609+00:00,1.535000,2.754620,
2025-09-25T05:45:29.830609+00:00,1.540000,2.709400,
2025-09-25T05:45:29.835609+00:00,1.545000,2.665700,
2025-09-25T05:45:29.840609+00:00,1.550000,2.627700,
2025-09-25T05:45:29.845609+00:00,1.555000,2.588180,
2025-09-25T05:45:29.850609+00:00,1.560000,2.545240,
2025-09-25T05:45:29.855609+00:00,1.565000,2.500020,
2025-09-25T05:45:29.860609+00:00,1.570000,2.453660,
2025-09-25T05:45:29.865609+00:00,1.575000,2.409200,
2025-09-25T05:45:29.870609+00:00,1.580000,2.376900,
2025-09-25T05:45:29.875609+00:00,1.585000,2.350300,
2025-09-25T05:45:29.880609+00:00,1.590000,2.314580,
2025-09-25T05:45:29.885609+00:00,1.595000,2.271260,
2025-09-25T05:45:29.890609+00:00,1.600000,2.233260,
2025-09-25T05:45:29.895609+00:00,1.605000,2.204760,
2025-09-25T05:45:29.900609+00:00,1.610000,2.179680,
2025-09-25T05:45:29.905609+00:00,1.615000,2.143960,
2025-09-25T05:45:29.910609+00:00,1.620000,2.101780,
2025-09-25T05:45:29.915609+00:00,1.625000,2.064160,
2025-09-25T05:45:29.920609+00:00,1.630000,2.040220,
2025-09-25T05:45:29.925609+00:00,1.635000,2.027300,
2025-09-25T05:45:29.930609+00:00,1.640000,2.007540,
2025-09-25T05:45:29.935609+00:00,1.645000,1.970680,
2025-09-25T05:45:29.940609+00:00,1.650000,1.922800,
2025-09-25T05:45:29.945609+00:00,1.655000,1.882140,
2025-09-25T05:45:29.950609+00:00,1.660000,1.857820,
2025-09-25T05:45:29.955609+00:00,1.665000,1.836920,
2025-09-25T05:45:29.960609+00:00,1.670000,1.808040,
2025-09-25T05:45:29.965609+00:00,1.675000,1.773080,
2025-09-25T05:45:29.970609+00:00,1.680000,1.746100,
2025-09-25T05:45:29.975609+00:00,1.685000,1.730140,
2025-09-25T05:45:29.980609+00:00,1.690000,1.713800,
2025-09-25T05:45:29.985609+00:00,1.695000,1.693660,
2025-09-25T05:45:29.990609+00:00,1.700000,1.668580,
2025-09-25T05:45:29.995609+00:00,1.705000,1.638560,
2025-09-25T05:45:30.000609+00:00,1.710000,1.605500,
2025-09-25T05:45:30.005609+00:00,1.715000,1.575480,
2025-09-25T05:45:30.010609+00:00,1.720000,1.546600,
2025-09-25T05:45:30.015609+00:00,1.725000,1.516580,
2025-09-25T05:45:30.020609+00:00,1.730000,1.491880,
2025-09-25T05:45:30.025609+00:00,1.735000,1.477060,
2025-09-25T05:45:30.030609+00:00,1.740000,1.460340,
2025-09-25T05:45:30.035609+00:00,1.745000,1.436020,
2025-09-25T05:45:30.040609+00:00,1.750000,1.409420,
2025-09-25T05:45:30.045609+00:00,1.755000,1.389280,
2025-09-25T05:45:30.050609+00:00,1.760000,1.374080,
2025-09-25T05:45:30.055609+00:00,1.765000,1.356600,
2025-09-25T05:45:30.060609+00:00,1.770000,1.334180,
2025-09-25T05:45:30.065609+00:00,1.775000,1.308720,
2025-09-25T05:45:30.070609+00:00,1.780000,1.287060,
2025-09-25T05:45:30.075609+00:00,1.785000,1.266160,
2025-09-25T05:45:30.080609+00:00,1.790000,1.247540,
2025-09-25T05:45:30.085609+00:00,1.795000,1.233860,
2025-09-25T05:45:30.090609+00:00,1.800000,1.220940,
2025-09-25T05:45:30.095609+00:00,1.805000,1.207260,
2025-09-25T05:45:30.100609+00:00,1.810000,1.198520,
2025-09-25T05:45:30.105609+00:00,1.815000,1.190540,
2025-09-25T05:45:30.110609+00:00,1.820000,1.173820,
2025-09-25T05:45:30.115609+00:00,1.825000,1.149500,
2025-09-25T05:45:30.120609+00:00,1.830000,1.125560,
2025-09-25T05:45:30.125609+00:00,1.835000,1.106560,
2025-09-25T05:45:30.130609+00:00,1.840000,1.091740,
2025-09-25T05:45:30.135609+00:00,1.845000,1.079200,
2025-09-25T05:45:30.140609+00:00,1.850000,1.066280,
2025-09-25T05:45:30.145609+00:00,1.855000,1.048800,
2025-09-25T05:45:30.150609+00:00,1.860000,1.025240,
2025-09-25T05:45:30.155609+00:00,1.865000,0.998640,
2025-09-25T05:45:30.160609+00:00,1.870000,0.977360,
2025-09-25T05:45:30.165609+00:00,1.875000,0.959120,
2025-09-25T05:45:30.170609+00:00,1.880000,0.942400,
2025-09-25T05:45:30.175609+00:00,1.885000,0.927960,
2025-09-25T05:45:30.180609+00:00,1.890000,0.913520,
2025-09-25T05:45:30.185609+00:00,1.895000,0.901740,
2025-09-25T05:45:30.190609+00:00,1.900000,0.894140,
2025-09-25T05:45:30.195609+00:00,1.905000,0.886540,
2025-09-25T05:45:30.200609+00:00,1.910000,0.874380,
2025-09-25T05:45:30.205609+00:00,1.915000,0.848540,
2025-09-25T05:45:30.210609+00:00,1.920000,0.821560,
2025-09-25T05:45:30.215609+00:00,1.925000,0.806360,
2025-09-25T05:45:30.220609+00:00,1.930000,0.802180,
2025-09-25T05:45:30.225609+00:00,1.935000,0.798380,
2025-09-25T05:45:30.230609+00:00,1.940000,0.785460,
2025-09-25T05:45:30.235609+00:00,1.945000,0.771020,
2025-09-25T05:45:30.240609+00:00,1.950000,0.764180,
2025-09-25T05:45:30.245609+00:00,1.955000,0.756580,
2025-09-25T05:45:30.250609+00:00,1.960000,0.739860,
2025-09-25T05:45:30.255609+00:00,1.965000,0.723140,
2025-09-25T05:45:30.260609+00:00,1.970000,0.711740,
2025-09-25T05:45:30.265609+00:00,1.975000,0.701860,
2025-09-25T05:45:30.270609+00:00,1.980000,0.691220,
2025-09-25T05:45:30.275609+00:00,1.985000,0.678300,
2025-09-25T05:45:30.280609+00:00,1.990000,0.666520,
2025-09-25T05:45:30.285609+00:00,1.995000,0.657400,
2025-09-25T05:45:30.290609+00:00,2.000000,0.648660,
2025-09-25T05:45:30.295609+00:00,2.005000,0.637640,
2025-09-25T05:45:30.300609+00:00,2.010000,0.629280,
2025-09-25T05:45:30.305609+00:00,2.015000,0.623580,
2025-09-25T05:45:30.310609+00:00,2.020000,0.616740,
2025-09-25T05:45:30.315609+00:00,2.025000,0.609140,
2025-09-25T05:45:30.320609+00:00,2.030000,0.603440,
2025-09-25T05:45:30.325609+00:00,2.035000,0.603440,
2025-09-25T05:45:30.330609+00:00,2.040000,0.605720,
2025-09-25T05:45:30.335609+00:00,2.045000,0.604580,
2025-09-25T05:45:30.340609+00:00,2.050000,0.594320,
2025-09-25T05:45:30.345609+00:00,2.055000,0.583300,
2025-09-25T05:45:30.350609+00:00,2.060000,0.574180,
2025-09-25T05:45:30.355609+00:00,2.065000,0.563920,
2025-09-25T05:45:30.360609+00:00,2.070000,0.547200,
2025-09-25T05:45:30.365609+00:00,2.075000,0.528200,
2025-09-25T05:45:30.370609+00:00,2.080000,0.513000,
2025-09-25T05:45:30.375609+00:00,2.085000,0.504640,
2025-09-25T05:45:30.380609+00:00,2.090000,0.497040,
2025-09-25T05:45:30.385609+00:00,2.095000,0.484500,
2025-09-25T05:45:30.390609+00:00,2.100000,0.472340,
2025-09-25T05:45:30.395609+00:00,2.105000,0.462080,
2025-09-25T05:45:30.400609+00:00,2.110000,0.448780,
2025-09-25T05:45:30.405609+00:00,2.115000,0.434720,
2025-09-25T05:45:30.410609+00:00,2.120000,0.422560,
2025-09-25T05:45:30.415609+00:00,2.125000,0.414580,
2025-09-25T05:45:30.420609+00:00,2.130000,0.414200,
2025-09-25T05:45:30.425609+00:00,2.135000,0.410780,
2025-09-25T05:45:30.430609+00:00,2.140000,0.392160,
2025-09-25T05:45:30.435609+00:00,2.145000,0.364420,
2025-09-25T05:45:30.440609+00:00,2.150000,0.344660,
2025-09-25T05:45:30.445609+00:00,2.155000,0.340100,
2025-09-25T05:45:30.450609+00:00,2.160000,0.346180,
2025-09-25T05:45:30.455609+00:00,2.165000,0.351880,
2025-09-25T05:45:30.460609+00:00,2.170000,0.349980,
2025-09-25T05:45:30.465609+00:00,2.175000,0.340480,
2025-09-25T05:45:30.470609+00:00,2.180000,0.325280,
2025-09-25T05:45:30.475609+00:00,2.185000,0.313880,
2025-09-25T05:45:30.480609+00:00,2.190000,0.310460,
2025-09-25T05:45:30.485609+00:00,2.195000,0.305140,
2025-09-25T05:45:30.490609+00:00,2.200000,0.288040,
2025-09-25T05:45:30.495609+00:00,2.205000,0.276260,
2025-09-25T05:45:30.500609+00:00,2.210000,0.277780,
2025-09-25T05:45:30.505609+00:00,2.215000,0.287660,
2025-09-25T05:45:30.510609+00:00,2.220000,0.284620,
2025-09-25T05:45:30.515609+00:00,2.225000,0.270180,
2025-09-25T05:45:30.520609+00:00,2.230000,0.262580,
2025-09-25T05:45:30.525609+00:00,2.235000,0.269040,
2025-09-25T05:45:30.530609+00:00,2.240000,0.279680,
2025-09-25T05:45:30.535609+00:00,2.245000,0.284240,
2025-09-25T05:45:30.540609+00:00,2.250000,0.281200,
2025-09-25T05:45:30.545609+00:00,2.255000,0.277780,
2025-09-25T05:45:30.550609+00:00,2.260000,0.275500,
2025-09-25T05:45:30.555609+00:00,2.265000,0.268660,
2025-09-25T05:45:30.560609+00:00,2.270000,0.260680,
2025-09-25T05:45:30.565609+00:00,2.275000,0.254980,
2025-09-25T05:45:30.570609+00:00,2.280000,0.256120,
2025-09-25T05:45:30.575609+00:00,2.285000,0.256120,
2025-09-25T05:45:30.580609+00:00,2.290000,0.249280,
2025-09-25T05:45:30.585609+00:00,2.295000,0.243200,
2025-09-25T05:45:30.590609+00:00,2.300000,0.242820,
2025-09-25T05:45:30.595609+00:00,2.305000,0.243960,
2025-09-25T05:45:30.600609+00:00,2.310000,0.240540,
2025-09-25T05:45:30.605609+00:00,2.315000,0.233320,
2025-09-25T05:45:30.610609+00:00,2.320000,0.229520,
2025-09-25T05:45:30.615609+00:00,2.325000,0.224580,
2025-09-25T05:45:30.620609+00:00,2.330000,0.211280,
2025-09-25T05:45:30.625609+00:00,2.335000,0.196460,
2025-09-25T05:45:30.630609+00:00,2.340000,0.190760,
2025-09-25T05:45:30.635609+00:00,2.345000,0.192660,
2025-09-25T05:45:30.640609+00:00,2.350000,0.192660,
2025-09-25T05:45:30.645609+00:00,2.355000,0.187340,
2025-09-25T05:45:30.650609+00:00,2.360000,0.175940,
2025-09-25T05:45:30.655609+00:00,2.365000,0.165680,
2025-09-25T05:45:30.660609+00:00,2.370000,0.155800,
2025-09-25T05:45:30.665609+00:00,2.375000,0.150100,
2025-09-25T05:45:30.670609+00:00,2.380000,0.151240,
2025-09-25T05:45:30.675609+00:00,2.385000,0.158080,
2025-09-25T05:45:30.680609+00:00,2.390000,0.163020,
2025-09-25T05:45:30.685609+00:00,2.395000,0.164920,
2025-09-25T05:45:30.690609+00:00,2.400000,0.164540,
2025-09-25T05:45:30.695609+00:00,2.405000,0.159980,
2025-09-25T05:45:30.700609+00:00,2.410000,0.152760,
2025-09-25T05:45:30.705609+00:00,2.415000,0.150860,
2025-09-25T05:45:30.710609+00:00,2.420000,0.158080,
2025-09-25T05:45:30.715609+00:00,2.425000,0.168340,
2025-09-25T05:45:30.720609+00:00,2.430000,0.168340,
2025-09-25T05:45:30.725609+00:00,2.435000,0.157320,
2025-09-25T05:45:30.730609+00:00,2.440000,0.147060,
2025-09-25T05:45:30.735609+00:00,2.445000,0.140980,
2025-09-25T05:45:30.740609+00:00,2.450000,0.138700,
2025-09-25T05:45:30.745609+00:00,2.455000,0.139080,
2025-09-25T05:45:30.750609+00:00,2.460000,0.144020,
2025-09-25T05:45:30.755609+00:00,2.465000,0.145540,
2025-09-25T05:45:30.760609+00:00,2.470000,0.136040,
2025-09-25T05:45:30.765609+00:00,2.475000,0.126920,
2025-09-25T05:45:30.770609+00:00,2.480000,0.129580,
2025-09-25T05:45:30.775609+00:00,2.485000,0.137560,
2025-09-25T05:45:30.780609+00:00,2.490000,0.139080,
2025-09-25T05:45:30.785609+00:00,2.495000,0.133380,
2025-09-25T05:45:30.790609+00:00,2.500000,0.128440,
2025-09-25T05:45:30.795609+00:00,2.505000,0.127300,
2025-09-25T05:45:30.800609+00:00,2.510000,0.125400,
2025-09-25T05:45:30.805609+00:00,2.515000,0.118180,
2025-09-25T05:45:30.810609+00:00,2.520000,0.114760,
2025-09-25T05:45:30.815609+00:00,2.525000,0.113620,
2025-09-25T05:45:30.820609+00:00,2.530000,0.111340,
2025-09-25T05:45:30.825609+00:00,2.535000,0.110580,
2025-09-25T05:45:30.830609+00:00,2.540000,0.114760,
2025-09-25T05:45:30.835609+00:00,2.545000,0.116280,
2025-09-25T05:45:30.840609+00:00,2.550000,0.108300,
2025-09-25T05:45:30.845609+00:00,2.555000,0.093860,
2025-09-25T05:45:30.850609+00:00,2.560000,0.083220,
2025-09-25T05:45:30.855609+00:00,2.565000,0.080560,
2025-09-25T05:45:30.860609+00:00,2.570000,0.079800,
2025-09-25T05:45:30.865609+00:00,2.575000,0.074860,
2025-09-25T05:45:30.870609+00:00,2.580000,0.066880,
2025-09-25T05:45:30.875609+00:00,2.585000,0.060800,
2025-09-25T05:45:30.880609+00:00,2.590000,0.058520,
2025-09-25T05:45:30.885609+00:00,2.595000,0.066120,
2025-09-25T05:45:30.890609+00:00,2.600000,0.081700,
2025-09-25T05:45:30.895609+00:00,2.605000,0.088540,
2025-09-25T05:45:30.900609+00:00,2.610000,0.080940,
2025-09-25T05:45:30.905609+00:00,2.615000,0.065740,
2025-09-25T05:45:30.910609+00:00,2.620000,0.057380,
2025-09-25T05:45:30.915609+00:00,2.625000,0.053960,
2025-09-25T05:45:30.920609+00:00,2.630000,0.052440,
2025-09-25T05:45:30.925609+00:00,2.635000,0.052060,
2025-09-25T05:45:30.930609+00:00,2.640000,0.053200,
2025-09-25T05:45:30.935609+00:00,2.645000,0.050540,
2025-09-25T05:45:30.940609+00:00,2.650000,0.044080,
2025-09-25T05:45:30.945609+00:00,2.655000,0.034580,
2025-09-25T05:45:30.950609+00:00,2.660000,0.030020,
2025-09-25T05:45:30.955609+00:00,2.665000,0.034580,
2025-09-25T05:45:30.960609+00:00,2.670000,0.035340,
2025-09-25T05:45:30.965609+00:00,2.675000,0.029260,
2025-09-25T05:45:30.970609+00:00,2.680000,0.020900,
2025-09-25T05:45:30.975609+00:00,2.685000,0.019000,
2025-09-25T05:45:30.980609+00:00,2.690000,0.028120,
2025-09-25T05:45:30.985609+00:00,2.695000,0.042560,
2025-09-25T05:45:30.990609+00:00,2.700000,0.050920,
2025-09-25T05:45:30.995609+00:00,2.705000,0.048260,
2025-09-25T05:45:31.000609+00:00,2.710000,0.045600,
2025-09-25T05:45:31.005609+00:00,2.715000,0.045600,
2025-09-25T05:45:31.010609+00:00,2.720000,0.047500,
2025-09-25T05:45:31.015609+00:00,2.725000,0.049020,
2025-09-25T05:45:31.020609+00:00,2.730000,0.049780,
2025-09-25T05:45:31.025609+00:00,2.735000,0.047500,
2025-09-25T05:45:31.030609+00:00,2.740000,0.042180,
2025-09-25T05:45:31.035609+00:00,2.745000,0.039900,
2025-09-25T05:45:31.040609+00:00,2.750000,0.040660,
2025-09-25T05:45:31.045609+00:00,2.755000,0.040660,
2025-09-25T05:45:31.050609+00:00,2.760000,0.043320,
2025-09-25T05:45:31.055609+00:00,2.765000,0.049780,
2025-09-25T05:45:31.060609+00:00,2.770000,0.056240,
2025-09-25T05:45:31.065609+00:00,2.775000,0.052060,
2025-09-25T05:45:31.070609+00:00,2.780000,0.036100,
2025-09-25T05:45:31.075609+00:00,2.785000,0.022040,
2025-09-25T05:45:31.080609+00:00,2.790000,0.018240,
2025-09-25T05:45:31.085609+00:00,2.795000,0.018620,
2025-09-25T05:45:31.090609+00:00,2.800000,0.014060,
2025-09-25T05:45:31.095609+00:00,2.805000,0.004560,
2025-09-25T05:45:31.100609+00:00,2.810000,-0.002280,
2025-09-25T05:45:31.105609+00:00,2.815000,-0.006460,
2025-09-25T05:45:31.110609+00:00,2.820000,-0.007220,
2025-09-25T05:45:31.115609+00:00,2.825000,-0.006460,
2025-09-25T05:45:31.120609+00:00,2.830000,-0.003800,
2025-09-25T05:45:31.125609+00:00,2.835000,-0.001900,
2025-09-25T05:45:31.130609+00:00,2.840000,-0.002660,
2025-09-25T05:45:31.135609+00:00,2.845000,-0.004940,
2025-09-25T05:45:31.140609+00:00,2.850000,-0.001520,
2025-09-25T05:45:31.145609+00:00,2.855000,0.005700,
2025-09-25T05:45:31.150609+00:00,2.860000,0.008360,
2025-09-25T05:45:31.155609+00:00,2.865000,0.002280,
2025-09-25T05:45:31.160609+00:00,2.870000,-0.006080,
2025-09-25T05:45:31.165609+00:00,2.875000,-0.005700,
2025-09-25T05:45:31.170609+00:00,2.880000,-0.000760,
2025-09-25T05:45:31.175609+00:00,2.885000,-0.002280,
2025-09-25T05:45:31.180609+00:00,2.890000,-0.008740,
2025-09-25T05:45:31.185609+00:00,2.895000,-0.010260,
2025-09-25T05:45:31.190609+00:00,2.900000,-0.000760,
2025-09-25T05:45:31.195609+00:00,2.905000,0.009500,
2025-09-25T05:45:31.200609+00:00,2.910000,0.014060,
2025-09-25T05:45:31.205609+00:00,2.915000,0.011020,
2025-09-25T05:45:31.210609+00:00,2.920000,0.011400,
2025-09-25T05:45:31.215609+00:00,2.925000,0.019000,
2025-09-25T05:45:31.220609+00:00,2.930000,0.030400,
2025-09-25T05:45:31.225609+00:00,2.935000,0.031160,
2025-09-25T05:45:31.230609+00:00,2.940000,0.021280,
2025-09-25T05:45:31.235609+00:00,2.945000,0.010640,
2025-09-25T05:45:31.240609+00:00,2.950000,0.012160,
2025-09-25T05:45:31.245609+00:00,2.955000,0.022420,
2025-09-25T05:45:31.250609+00:00,2.960000,0.023180,
2025-09-25T05:45:31.255609+00:00,2.965000,0.006840,
2025-09-25T05:45:31.260609+00:00,2.970000,-0.014440,
2025-09-25T05:45:31.265609+00:00,2.975000,-0.023940,
2025-09-25T05:45:31.270609+00:00,2.980000,-0.017860,
2025-09-25T05:45:31.275609+00:00,2.985000,-0.007600,
2025-09-25T05:45:31.280609+00:00,2.990000,-0.004940,
2025-09-25T05:45:31.285609+00:00,2.995000,-0.007600,
2025-09-25T05:45:31.290609+00:00,3.000000,-0.011020,
2025-09-25T05:45:31.295609+00:00,3.005000,-0.012540,
2025-09-25T05:45:31.300609+00:00,3.010000,-0.011020,
2025-09-25T05:45:31.305609+00:00,3.015000,-0.004180,
2025-09-25T05:45:31.310609+00:00,3.020000,0.007600,
2025-09-25T05:45:31.315609+00:00,3.025000,0.006840,
2025-09-25T05:45:31.320609+00:00,3.030000,-0.011400,
2025-09-25T05:45:31.325609+00:00,3.035000,-0.027740,
2025-09-25T05:45:31.330609+00:00,3.040000,-0.029260,
2025-09-25T05:45:31.335609+00:00,3.045000,-0.018240,
2025-09-25T05:45:31.340609+00:00,3.050000,-0.011780,
2025-09-25T05:45:31.345609+00:00,3.055000,-0.014440,
2025-09-25T05:45:31.350609+00:00,3.060000,-0.019380,
2025-09-25T05:45:31.355609+00:00,3.065000,-0.017860,
2025-09-25T05:45:31.360609+00:00,3.070000,-0.014440,
2025-09-25T05:45:31.365609+00:00,3.075000,-0.013300,
2025-09-25T05:45:31.370609+00:00,3.080000,-0.019000,
2025-09-25T05:45:31.375609+00:00,3.085000,-0.028880,
2025-09-25T05:45:31.380609+00:00,3.090000,-0.036480,
2025-09-25T05:45:31.385609+00:00,3.095000,-0.026980,
2025-09-25T05:45:31.390609+00:00,3.100000,-0.008360,
2025-09-25T05:45:31.395609+00:00,3.105000,-0.001900,
2025-09-25T05:45:31.400609+00:00,3.110000,-0.011780,
2025-09-25T05:45:31.405609+00:00,3.115000,-0.021660,
2025-09-25T05:45:31.410609+00:00,3.120000,-0.021660,
2025-09-25T05:45:31.415609+00:00,3.125000,-0.015200,
2025-09-25T05:45:31.420609+00:00,3.130000,-0.014440,
2025-09-25T05:45:31.425609+00:00,3.135000,-0.019380,
2025-09-25T05:45:31.430609+00:00,3.140000,-0.022420,
2025-09-25T05:45:31.435609+00:00,3.145000,-0.020520,
2025-09-25T05:45:31.440609+00:00,3.150000,-0.017860,
2025-09-25T05:45:31.445609+00:00,3.155000,-0.013300,
2025-09-25T05:45:31.450609+00:00,3.160000,-0.009880,
2025-09-25T05:45:31.455609+00:00,3.165000,-0.007600,
2025-09-25T05:45:31.460609+00:00,3.170000,-0.006460,
2025-09-25T05:45:31.465609+00:00,3.175000,-0.003800,
2025-09-25T05:45:31.470609+00:00,3.180000,-0.004180,
2025-09-25T05:45:31.475609+00:00,3.185000,-0.010260,
2025-09-25T05:45:31.480609+00:00,3.190000,-0.009500,
2025-09-25T05:45:31.485609+00:00,3.195000,-0.002660,
2025-09-25T05:45:31.490609+00:00,3.200000,0.002280,
2025-09-25T05:45:31.495609+00:00,3.205000,-0.003420,
2025-09-25T05:45:31.500609+00:00,3.210000,-0.011400,
2025-09-25T05:45:31.505609+00:00,3.215000,-0.002660,
2025-09-25T05:45:31.510609+00:00,3.220000,0.025840,
2025-09-25T05:45:31.515609+00:00,3.225000,0.056240,
2025-09-25T05:45:31.520609+00:00,3.230000,0.070300,
2025-09-25T05:45:31.525609+00:00,3.235000,0.063840,
2025-09-25T05:45:31.530609+00:00,3.240000,0.046740,
2025-09-25T05:45:31.535609+00:00,3.245000,0.031540,
2025-09-25T05:45:31.540609+00:00,3.250000,0.022420,
2025-09-25T05:45:31.545609+00:00,3.255000,0.020900,
2025-09-25T05:45:31.550609+00:00,3.260000,0.017860,
2025-09-25T05:45:31.555609+00:00,3.265000,0.011400,
2025-09-25T05:45:31.560609+00:00,3.270000,0.003800,
2025-09-25T05:45:31.565609+00:00,3.275000,0.002280,
2025-09-25T05:45:31.570609+00:00,3.280000,0.006080,
2025-09-25T05:45:31.575609+00:00,3.285000,0.012540,
2025-09-25T05:45:31.580609+00:00,3.290000,0.012160,
2025-09-25T05:45:31.585609+00:00,3.295000,0.006460,
2025-09-25T05:45:31.590609+00:00,3.300000,-0.003420,
2025-09-25T05:45:31.595609+00:00,3.305000,-0.006840,
2025-09-25T05:45:31.600609+00:00,3.310000,0.001520,
2025-09-25T05:45:31.605609+00:00,3.315000,0.017860,
2025-09-25T05:45:31.610609+00:00,3.320000,0.031920,
2025-09-25T05:45:31.615609+00:00,3.325000,0.035340,
2025-09-25T05:45:31.620609+00:00,3.330000,0.027740,
2025-09-25T05:45:31.625609+00:00,3.335000,0.020520,
2025-09-25T05:45:31.630609+00:00,3.340000,0.020900,
2025-09-25T05:45:31.635609+00:00,3.345000,0.026220,
2025-09-25T05:45:31.640609+00:00,3.350000,0.029260,
2025-09-25T05:45:31.645609+00:00,3.355000,0.026220,
2025-09-25T05:45:31.650609+00:00,3.360000,0.018620,
2025-09-25T05:45:31.655609+00:00,3.365000,0.011780,
2025-09-25T05:45:31.660609+00:00,3.370000,0.005700,
2025-09-25T05:45:31.665609+00:00,3.375000,0.002660,
2025-09-25T05:45:31.670609+00:00,3.380000,0.008360,
2025-09-25T05:45:31.675609+00:00,3.385000,0.011400,
2025-09-25T05:45:31.680609+00:00,3.390000,0.002280,
2025-09-25T05:45:31.685609+00:00,3.395000,-0.014060,
2025-09-25T05:45:31.690609+00:00,3.400000,-0.024320,
2025-09-25T05:45:31.695609+00:00,3.405000,-0.024320,
2025-09-25T05:45:31.700609+00:00,3.410000,-0.020900,
2025-09-25T05:45:31.705609+00:00,3.415000,-0.020900,
2025-09-25T05:45:31.710609+00:00,3.420000,-0.021660,
2025-09-25T05:45:31.715609+00:00,3.425000,-0.017860,
2025-09-25T05:45:31.720609+00:00,3.430000,-0.005700,
2025-09-25T05:45:31.725609+00:00,3.435000,0.007980,
2025-09-25T05:45:31.730609+00:00,3.440000,0.017860,
2025-09-25T05:45:31.735609+00:00,3.445000,0.022420,
2025-09-25T05:45:31.740609+00:00,3.450000,0.029260,
2025-09-25T05:45:31.745609+00:00,3.455000,0.038000,
2025-09-25T05:45:31.750609+00:00,3.460000,0.045600,
2025-09-25T05:45:31.755609+00:00,3.465000,0.054720,
2025-09-25T05:45:31.760609+00:00,3.470000,0.062320,
2025-09-25T05:45:31.765609+00:00,3.475000,0.069540,
2025-09-25T05:45:31.770609+00:00,3.480000,0.073340,
2025-09-25T05:45:31.775609+00:00,3.485000,0.073340,
2025-09-25T05:45:31.780609+00:00,3.490000,0.072580,
2025-09-25T05:45:31.785609+00:00,3.495000,0.078280,
2025-09-25T05:45:31.790609+00:00,3.500000,0.087400,
2025-09-25T05:45:31.795609+00:00,3.505000,0.090820,
2025-09-25T05:45:31.800609+00:00,3.510000,0.080560,
2025-09-25T05:45:31.805609+00:00,3.515000,0.060040,
2025-09-25T05:45:31.810609+00:00,3.520000,0.040280,
2025-09-25T05:45:31.815609+00:00,3.525000,0.030400,
2025-09-25T05:45:31.820609+00:00,3.530000,0.026600,
2025-09-25T05:45:31.825609+00:00,3.535000,0.019000,
2025-09-25T05:45:31.830609+00:00,3.540000,0.006080,
2025-09-25T05:45:31.835609+00:00,3.545000,-0.009880,
2025-09-25T05:45:31.840609+00:00,3.550000,-0.025840,
2025-09-25T05:45:31.845609+00:00,3.555000,-0.037620,
2025-09-25T05:45:31.850609+00:00,3.560000,-0.041420,
2025-09-25T05:45:31.855609+00:00,3.565000,-0.033820,
2025-09-25T05:45:31.860609+00:00,3.570000,-0.022420,
2025-09-25T05:45:31.865609+00:00,3.575000,-0.014060,
2025-09-25T05:45:31.870609+00:00,3.580000,-0.010260,
2025-09-25T05:45:31.875609+00:00,3.585000,-0.009120,
2025-09-25T05:45:31.880609+00:00,3.590000,-0.006080,
2025-09-25T05:45:31.885609+00:00,3.595000,-0.001900,
2025-09-25T05:45:31.890609+00:00,3.600000,0.003420,
2025-09-25T05:45:31.895609+00:00,3.605000,0.009500,
2025-09-25T05:45:31.900609+00:00,3.610000,0.016720,
2025-09-25T05:45:31.905609+00:00,3.615000,0.022800,
2025-09-25T05:45:31.910609+00:00,3.620000,0.024700,
2025-09-25T05:45:31.915609+00:00,3.625000,0.027360,
2025-09-25T05:45:31.920609+00:00,3.630000,0.038760,
2025-09-25T05:45:31.925609+00:00,3.635000,0.056240,
2025-09-25T05:45:31.930609+00:00,3.640000,0.071060,
2025-09-25T05:45:31.935609+00:00,3.645000,0.080940,
2025-09-25T05:45:31.940609+00:00,3.650000,0.084740,
2025-09-25T05:45:31.945609+00:00,3.655000,0.080940,
2025-09-25T05:45:31.950609+00:00,3.660000,0.078280,
2025-09-25T05:45:31.955609+00:00,3.665000,0.084360,
2025-09-25T05:45:31.960609+00:00,3.670000,0.102600,
2025-09-25T05:45:31.965609+00:00,3.675000,0.120080,
2025-09-25T05:45:31.970609+00:00,3.680000,0.130340,
2025-09-25T05:45:31.975609+00:00,3.685000,0.130720,
2025-09-25T05:45:31.980609+00:00,3.690000,0.125400,
2025-09-25T05:45:31.985609+00:00,3.695000,0.117800,
2025-09-25T05:45:31.990609+00:00,3.700000,0.112100,
2025-09-25T05:45:31.995609+00:00,3.705000,0.109440,
2025-09-25T05:45:32.000609+00:00,3.710000,0.113620,
2025-09-25T05:45:32.005609+00:00,3.715000,0.118180,
2025-09-25T05:45:32.010609+00:00,3.720000,0.117040,
2025-09-25T05:45:32.015609+00:00,3.725000,0.117800,
2025-09-25T05:45:32.020609+00:00,3.730000,0.131480,
2025-09-25T05:45:32.025609+00:00,3.735000,0.148580,
2025-09-25T05:45:32.030609+00:00,3.740000,0.151620,
2025-09-25T05:45:32.035609+00:00,3.745000,0.142880,
2025-09-25T05:45:32.040609+00:00,3.750000,0.149720,
2025-09-25T05:45:32.045609+00:00,3.755000,0.187340,
2025-09-25T05:45:32.050609+00:00,3.760000,0.242060,
2025-09-25T05:45:32.055609+00:00,3.765000,0.278540,
2025-09-25T05:45:32.060609+00:00,3.770000,0.281200,
2025-09-25T05:45:32.065609+00:00,3.775000,0.265240,
2025-09-25T05:45:32.070609+00:00,3.780000,0.250040,
2025-09-25T05:45:32.075609+00:00,3.785000,0.240160,
2025-09-25T05:45:32.080609+00:00,3.790000,0.236360,
2025-09-25T05:45:32.085609+00:00,3.795000,0.240160,
2025-09-25T05:45:32.090609+00:00,3.800000,0.244720,
2025-09-25T05:45:32.095609+00:00,3.805000,0.238640,
2025-09-25T05:45:32.100609+00:00,3.810000,0.215080,
2025-09-25T05:45:32.105609+00:00,3.815000,0.187720,
2025-09-25T05:45:32.110609+00:00,3.820000,0.166440,
2025-09-25T05:45:32.115609+00:00,3.825000,0.152000,
2025-09-25T05:45:32.120609+00:00,3.830000,0.134520,
2025-09-25T05:45:32.125609+00:00,3.835000,0.122360,
2025-09-25T05:45:32.130609+00:00,3.840000,0.134140,
2025-09-25T05:45:32.135609+00:00,3.845000,0.168720,
2025-09-25T05:45:32.140609+00:00,3.850000,0.204060,
2025-09-25T05:45:32.145609+00:00,3.855000,0.216980,
2025-09-25T05:45:32.150609+00:00,3.860000,0.209760,
2025-09-25T05:45:32.155609+00:00,3.865000,0.205580,
2025-09-25T05:45:32.160609+00:00,3.870000,0.216220,
2025-09-25T05:45:32.165609+00:00,3.875000,0.230660,
2025-09-25T05:45:32.170609+00:00,3.880000,0.235600,
2025-09-25T05:45:32.175609+00:00,3.885000,0.225720,
2025-09-25T05:45:32.180609+00:00,3.890000,0.215840,
2025-09-25T05:45:32.185609+00:00,3.895000,0.209000,
2025-09-25T05:45:32.190609+00:00,3.900000,0.199120,
2025-09-25T05:45:32.195609+00:00,3.905000,0.180880,
2025-09-25T05:45:32.200609+00:00,3.910000,0.159220,
2025-09-25T05:45:32.205609+00:00,3.915000,0.142500,
2025-09-25T05:45:32.210609+00:00,3.920000,0.130340,
2025-09-25T05:45:32.215609+00:00,3.925000,0.108300,
2025-09-25T05:45:32.220609+00:00,3.930000,0.066880,
2025-09-25T05:45:32.225609+00:00,3.935000,0.014060,
2025-09-25T05:45:32.230609+00:00,3.940000,-0.031540,
2025-09-25T05:45:32.235609+00:00,3.945000,-0.055480,
2025-09-25T05:45:32.240609+00:00,3.950000,-0.061940,
2025-09-25T05:45:32.245609+00:00,3.955000,-0.067640,
2025-09-25T05:45:32.250609+00:00,3.960000,-0.081320,
2025-09-25T05:45:32.255609+00:00,3.965000,-0.093860,
2025-09-25T05:45:32.260609+00:00,3.970000,-0.104120,
2025-09-25T05:45:32.265609+00:00,3.975000,-0.114380,
2025-09-25T05:45:32.270609+00:00,3.980000,-0.132240,
2025-09-25T05:45:32.275609+00:00,3.985000,-0.146680,
2025-09-25T05:45:32.280609+00:00,3.990000,-0.143640,
2025-09-25T05:45:32.285609+00:00,3.995000,-0.129960,
2025-09-25T05:45:32.290609+00:00,4.000000,-0.123880,
2025-09-25T05:45:32.295609+00:00,4.005000,-0.133760,
2025-09-25T05:45:32.300609+00:00,4.010000,-0.148200,
2025-09-25T05:45:32.305609+00:00,4.015000,-0.153900,
2025-09-25T05:45:32.310609+00:00,4.020000,-0.155040,
2025-09-25T05:45:32.315609+00:00,4.025000,-0.161500,
2025-09-25T05:45:32.320609+00:00,4.030000,-0.176320,
2025-09-25T05:45:32.325609+00:00,4.035000,-0.193420,
2025-09-25T05:45:32.330609+00:00,4.040000,-0.211280,
2025-09-25T05:45:32.335609+00:00,4.045000,-0.226100,
2025-09-25T05:45:32.340609+00:00,4.050000,-0.240920,
2025-09-25T05:45:32.345609+00:00,4.055000,-0.261440,
2025-09-25T05:45:32.350609+00:00,4.060000,-0.286520,
2025-09-25T05:45:32.355609+00:00,4.065000,-0.309320,
2025-09-25T05:45:32.360609+00:00,4.070000,-0.323000,
2025-09-25T05:45:32.365609+00:00,4.075000,-0.332120,
2025-09-25T05:45:32.370609+00:00,4.080000,-0.340480,
2025-09-25T05:45:32.375609+00:00,4.085000,-0.347700,
2025-09-25T05:45:32.380609+00:00,4.090000,-0.356820,
2025-09-25T05:45:32.385609+00:00,4.095000,-0.370880,
2025-09-25T05:45:32.390609+00:00,4.100000,-0.390260,
2025-09-25T05:45:32.395609+00:00,4.105000,-0.412300,
2025-09-25T05:45:32.400609+00:00,4.110000,-0.429020,
2025-09-25T05:45:32.405609+00:00,4.115000,-0.437760,
2025-09-25T05:45:32.410609+00:00,4.120000,-0.444220,
2025-09-25T05:45:32.415609+00:00,4.125000,-0.450680,
2025-09-25T05:45:32.420609+00:00,4.130000,-0.466260,
2025-09-25T05:45:32.425609+00:00,4.135000,-0.494380,
2025-09-25T05:45:32.430609+00:00,4.140000,-0.541120,
2025-09-25T05:45:32.435609+00:00,4.145000,-0.592800,
2025-09-25T05:45:32.440609+00:00,4.150000,-0.633080,
2025-09-25T05:45:32.445609+00:00,4.155000,-0.639540,
2025-09-25T05:45:32.450609+00:00,4.160000,-0.608380,
2025-09-25T05:45:32.455609+00:00,4.165000,-0.574940,
2025-09-25T05:45:32.460609+00:00,4.170000,-0.596980,
2025-09-25T05:45:32.465609+00:00,4.175000,-0.687420,
2025-09-25T05:45:32.470609+00:00,4.180000,-0.791920,
2025-09-25T05:45:32.475609+00:00,4.185000,-0.837140,
2025-09-25T05:45:32.480609+00:00,4.190000,-0.802180,
2025-09-25T05:45:32.485609+00:00,4.195000,-0.729220,
2025-09-25T05:45:32.490609+00:00,4.200000,-0.663100,
2025-09-25T05:45:32.495609+00:00,4.205000,-0.614840,
2025-09-25T05:45:32.500609+00:00,4.210000,-0.577220,
2025-09-25T05:45:32.505609+00:00,4.215000,-0.544920,
2025-09-25T05:45:32.510609+00:00,4.220000,-0.516800,
2025-09-25T05:45:32.515609+00:00,4.225000,-0.486780,
2025-09-25T05:45:32.520609+00:00,4.230000,-0.451440,
2025-09-25T05:45:32.525609+00:00,4.235000,-0.405840,
2025-09-25T05:45:32.530609+00:00,4.240000,-0.355300,
2025-09-25T05:45:32.535609+00:00,4.245000,-0.310080,
2025-09-25T05:45:32.540609+00:00,4.250000,-0.277780,
2025-09-25T05:45:32.545609+00:00,4.255000,-0.250420,
2025-09-25T05:45:32.550609+00:00,4.260000,-0.221160,
2025-09-25T05:45:32.555609+00:00,4.265000,-0.195700,
2025-09-25T05:45:32.560609+00:00,4.270000,-0.183920,
2025-09-25T05:45:32.565609+00:00,4.275000,-0.178600,
2025-09-25T05:45:32.570609+00:00,4.280000,-0.169100,
2025-09-25T05:45:32.575609+00:00,4.285000,-0.152760,
2025-09-25T05:45:32.580609+00:00,4.290000,-0.139080,
2025-09-25T05:45:32.585609+00:00,4.295000,-0.134140,
2025-09-25T05:45:32.590609+00:00,4.300000,-0.134140,
2025-09-25T05:45:32.595609+00:00,4.305000,-0.135280,
2025-09-25T05:45:32.600609+00:00,4.310000,-0.137560,
2025-09-25T05:45:32.605609+00:00,4.315000,-0.136800,
2025-09-25T05:45:32.610609+00:00,4.320000,-0.128060,
2025-09-25T05:45:32.615609+00:00,4.325000,-0.115520,
2025-09-25T05:45:32.620609+00:00,4.330000,-0.103740,
2025-09-25T05:45:32.625609+00:00,4.335000,-0.093480,
2025-09-25T05:45:32.630609+00:00,4.340000,-0.085500,
2025-09-25T05:45:32.635609+00:00,4.345000,-0.071060,
2025-09-25T05:45:32.640609+00:00,4.350000,-0.051680,
2025-09-25T05:45:32.645609+00:00,4.355000,-0.035340,
2025-09-25T05:45:32.650609+00:00,4.360000,-0.033060,
2025-09-25T05:45:32.655609+00:00,4.365000,-0.036100,
2025-09-25T05:45:32.660609+00:00,4.370000,-0.036100,
2025-09-25T05:45:32.665609+00:00,4.375000,-0.028500,
2025-09-25T05:45:32.670609+00:00,4.380000,-0.019760,
2025-09-25T05:45:32.675609+00:00,4.385000,-0.017100,
2025-09-25T05:45:32.680609+00:00,4.390000,-0.016340,
2025-09-25T05:45:32.685609+00:00,4.395000,-0.009500,
2025-09-25T05:45:32.690609+00:00,4.400000,-0.004180,
2025-09-25T05:45:32.695609+00:00,4.405000,-0.006080,
2025-09-25T05:45:32.700609+00:00,4.410000,-0.013300,
2025-09-25T05:45:32.705609+00:00,4.415000,-0.013300,
2025-09-25T05:45:32.710609+00:00,4.420000,-0.002280,
2025-09-25T05:45:32.715609+00:00,4.425000,0.015200,
2025-09-25T05:45:32.720609+00:00,4.430000,0.023940,
2025-09-25T05:45:32.725609+00:00,4.435000,0.023180,
2025-09-25T05:45:32.730609+00:00,4.440000,0.016720,
2025-09-25T05:45:32.735609+00:00,4.445000,0.011780,
2025-09-25T05:45:32.740609+00:00,4.450000,0.007600,
2025-09-25T05:45:32.745609+00:00,4.455000,0.009880,
2025-09-25T05:45:32.750609+00:00,4.460000,0.013300,
2025-09-25T05:45:32.755609+00:00,4.465000,0.015580,
2025-09-25T05:45:32.760609+00:00,4.470000,0.011400,
2025-09-25T05:45:32.765609+00:00,4.475000,0.012540,
2025-09-25T05:45:32.770609+00:00,4.480000,0.027360,
2025-09-25T05:45:32.775609+00:00,4.485000,0.045600,
2025-09-25T05:45:32.780609+00:00,4.490000,0.050540,
2025-09-25T05:45:32.785609+00:00,4.495000,0.039140,
2025-09-25T05:45:32.790609+00:00,4.500000,0.027360,
2025-09-25T05:45:32.795609+00:00,4.505000,0.026980,
2025-09-25T05:45:32.800609+00:00,4.510000,0.034200,
2025-09-25T05:45:32.805609+00:00,4.515000,0.044840,
2025-09-25T05:45:32.810609+00:00,4.520000,0.056240,
2025-09-25T05:45:32.815609+00:00,4.525000,0.065360,
2025-09-25T05:45:32.820609+00:00,4.530000,0.070680,
2025-09-25T05:45:32.825609+00:00,4.535000,0.076380,
2025-09-25T05:45:32.830609+00:00,4.540000,0.083220,
2025-09-25T05:45:32.835609+00:00,4.545000,0.086640,
2025-09-25T05:45:32.840609+00:00,4.550000,0.091580,
2025-09-25T05:45:32.845609+00:00,4.555000,0.093100,
2025-09-25T05:45:32.850609+00:00,4.560000,0.097280,
2025-09-25T05:45:32.855609+00:00,4.565000,0.100700,
2025-09-25T05:45:32.860609+00:00,4.570000,0.099180,
2025-09-25T05:45:32.865609+00:00,4.575000,0.093480,
2025-09-25T05:45:32.870609+00:00,4.580000,0.088920,
2025-09-25T05:45:32.875609+00:00,4.585000,0.088540,
2025-09-25T05:45:32.880609+00:00,4.590000,0.089300,
2025-09-25T05:45:32.885609+00:00,4.595000,0.087780,
2025-09-25T05:45:32.890609+00:00,4.600000,0.081320,
2025-09-25T05:45:32.895609+00:00,4.605000,0.071060,
2025-09-25T05:45:32.900609+00:00,4.610000,0.064220,
2025-09-25T05:45:32.905609+00:00,4.615000,0.059660,
2025-09-25T05:45:32.910609+00:00,4.620000,0.058140,
2025-09-25T05:45:32.915609+00:00,4.625000,0.055860,
2025-09-25T05:45:32.920609+00:00,4.630000,0.054720,
2025-09-25T05:45:32.925609+00:00,4.635000,0.055100,
2025-09-25T05:45:32.930609+00:00,4.640000,0.052820,
2025-09-25T05:45:32.935609+00:00,4.645000,0.046360,
2025-09-25T05:45:32.940609+00:00,4.650000,0.037620,
2025-09-25T05:45:32.945609+00:00,4.655000,0.033820,
2025-09-25T05:45:32.950609+00:00,4.660000,0.039520,
2025-09-25T05:45:32.955609+00:00,4.665000,0.049780,
2025-09-25T05:45:32.960609+00:00,4.670000,0.056240,
2025-09-25T05:45:32.965609+00:00,4.675000,0.055860,
2025-09-25T05:45:32.970609+00:00,4.680000,0.053200,
2025-09-25T05:45:32.975609+00:00,4.685000,0.050920,
2025-09-25T05:45:32.980609+00:00,4.690000,0.053580,
2025-09-25T05:45:32.985609+00:00,4.695000,0.057000,
2025-09-25T05:45:32.990609+00:00,4.700000,0.060040,
2025-09-25T05:45:32.995609+00:00,4.705000,0.058140,
2025-09-25T05:45:33.000609+00:00,4.710000,0.050920,
2025-09-25T05:45:33.005609+00:00,4.715000,0.046360,
2025-09-25T05:45:33.010609+00:00,4.720000,0.045600,
2025-09-25T05:45:33.015609+00:00,4.725000,0.047500,
2025-09-25T05:45:33.020609+00:00,4.730000,0.046740,
2025-09-25T05:45:33.025609+00:00,4.735000,0.043320,
2025-09-25T05:45:33.030609+00:00,4.740000,0.042940,
2025-09-25T05:45:33.035609+00:00,4.745000,0.045220,
2025-09-25T05:45:33.040609+00:00,4.750000,0.045600,
2025-09-25T05:45:33.045609+00:00,4.755000,0.039520,
2025-09-25T05:45:33.050609+00:00,4.760000,0.027740,
2025-09-25T05:45:33.055609+00:00,4.765000,0.019380,
2025-09-25T05:45:33.060609+00:00,4.770000,0.021280,
2025-09-25T05:45:33.065609+00:00,4.775000,0.030780,
2025-09-25T05:45:33.070609+00:00,4.780000,0.035720,
2025-09-25T05:45:33.075609+00:00,4.785000,0.034200,
2025-09-25T05:45:33.080609+00:00,4.790000,0.033060,
2025-09-25T05:45:33.085609+00:00,4.795000,0.037620,
2025-09-25T05:45:33.090609+00:00,4.800000,0.045220,
2025-09-25T05:45:33.095609+00:00,4.805000,0.050160,
2025-09-25T05:45:33.100609+00:00,4.810000,0.049400,
2025-09-25T05:45:33.105609+00:00,4.815000,0.046360,
2025-09-25T05:45:33.110609+00:00,4.820000,0.047120,
2025-09-25T05:45:33.115609+00:00,4.825000,0.051300,
2025-09-25T05:45:33.120609+00:00,4.830000,0.052060,
2025-09-25T05:45:33.125609+00:00,4.835000,0.047500,
2025-09-25T05:45:33.130609+00:00,4.840000,0.038000,
2025-09-25T05:45:33.135609+00:00,4.845000,0.030400,
2025-09-25T05:45:33.140609+00:00,4.850000,0.026980,
2025-09-25T05:45:33.145609+00:00,4.855000,0.025840,
2025-09-25T05:45:33.150609+00:00,4.860000,0.026980,
2025-09-25T05:45:33.155609+00:00,4.865000,0.031920,
2025-09-25T05:45:33.160609+00:00,4.870000,0.035340,
2025-09-25T05:45:33.165609+00:00,4.875000,0.036480,
2025-09-25T05:45:33.170609+00:00,4.880000,0.030780,
2025-09-25T05:45:33.175609+00:00,4.885000,0.023560,
2025-09-25T05:45:33.180609+00:00,4.890000,0.017860,
2025-09-25T05:45:33.185609+00:00,4.895000,0.017480,
2025-09-25T05:45:33.190609+00:00,4.900000,0.020520,
2025-09-25T05:45:33.195609+00:00,4.905000,0.019000,
2025-09-25T05:45:33.200609+00:00,4.910000,0.010640,
2025-09-25T05:45:33.205609+00:00,4.915000,0.003800,
2025-09-25T05:45:33.210609+00:00,4.920000,0.003040,
2025-09-25T05:45:33.215609+00:00,4.925000,0.004560,
2025-09-25T05:45:33.220609+00:00,4.930000,0.004940,
2025-09-25T05:45:33.225609+00:00,4.935000,0.001140,
2025-09-25T05:45:33.230609+00:00,4.940000,-0.003420,
2025-09-25T05:45:33.235609+00:00,4.945000,-0.005700,
2025-09-25T05:45:33.240609+00:00,4.950000,-0.006460,
2025-09-25T05:45:33.245609+00:00,4.955000,-0.006460,
2025-09-25T05:45:33.250609+00:00,4.960000,-0.003040,
2025-09-25T05:45:33.255609+00:00,4.965000,0.001520,
2025-09-25T05:45:33.260609+00:00,4.970000,0.005320,
2025-09-25T05:45:33.265609+00:00,4.975000,0.007600,
2025-09-25T05:45:33.270609+00:00,4.980000,0.009880,
2025-09-25T05:45:33.275609+00:00,4.985000,0.006460,
2025-09-25T05:45:33.280609+00:00,4.990000,0.002660,
2025-09-25T05:45:33.285609+00:00,4.995000,0.004940,
2025-09-25T05:45:33.290609+00:00,5.000000,0.008740,
2025-09-25T05:45:33.295609+00:00,5.005000,0.009880,
2025-09-25T05:45:33.300609+00:00,5.010000,0.008360,
2025-09-25T05:45:33.305609+00:00,5.015000,0.008360,
2025-09-25T05:45:33.310609+00:00,5.020000,0.010640,
2025-09-25T05:45:33.315609+00:00,5.025000,0.008740,
2025-09-25T05:45:33.320609+00:00,5.030000,0.002660,
2025-09-25T05:45:33.325609+00:00,5.035000,0.000760,
2025-09-25T05:45:33.330609+00:00,5.040000,0.001520,
2025-09-25T05:45:33.335609+00:00,5.045000,0.002280,
2025-09-25T05:45:33.340609+00:00,5.050000,-0.002660,
2025-09-25T05:45:33.345609+00:00,5.055000,-0.010260,
2025-09-25T05:45:33.350609+00:00,5.060000,-0.012540,
2025-09-25T05:45:33.355609+00:00,5.065000,-0.008360,
2025-09-25T05:45:33.360609+00:00,5.070000,-0.001520,
2025-09-25T05:45:33.365609+00:00,5.075000,0.000000,
2025-09-25T05:45:33.370609+00:00,5.080000,-0.002660,
2025-09-25T05:45:33.375609+00:00,5.085000,-0.003800,
2025-09-25T05:45:33.380609+00:00,5.090000,-0.003420,
2025-09-25T05:45:33.385609+00:00,5.095000,0.001140,
2025-09-25T05:45:33.390609+00:00,5.100000,0.004940,
2025-09-25T05:45:33.395609+00:00,5.105000,0.004940,
2025-09-25T05:45:33.400609+00:00,5.110000,0.003040,
2025-09-25T05:45:33.405609+00:00,5.115000,0.005320,
2025-09-25T05:45:33.410609+00:00,5.120000,0.007220,
2025-09-25T05:45:33.415609+00:00,5.125000,0.006840,
2025-09-25T05:45:33.420609+00:00,5.130000,0.008740,
2025-09-25T05:45:33.425609+00:00,5.135000,0.016720,
2025-09-25T05:45:33.430609+00:00,5.140000,0.020520,
2025-09-25T05:45:33.435609+00:00,5.145000,0.017860,
2025-09-25T05:45:33.440609+00:00,5.150000,0.011400,
2025-09-25T05:45:33.445609+00:00,5.155000,0.012540,
2025-09-25T05:45:33.450609+00:00,5.160000,0.017480,
2025-09-25T05:45:33.455609+00:00,5.165000,0.020520,
2025-09-25T05:45:33.460609+00:00,5.170000,0.016720,
2025-09-25T05:45:33.465609+00:00,5.175000,0.013680,
2025-09-25T05:45:33.470609+00:00,5.180000,0.011780,
2025-09-25T05:45:33.475609+00:00,5.185000,0.011780,
2025-09-25T05:45:33.480609+00:00,5.190000,0.011780,
2025-09-25T05:45:33.485609+00:00,5.195000,0.016720,
2025-09-25T05:45:33.490609+00:00,5.200000,0.020520,
2025-09-25T05:45:33.495609+00:00,5.205000,0.016720,
2025-09-25T05:45:33.500609+00:00,5.210000,0.007980,
2025-09-25T05:45:33.505609+00:00,5.215000,0.003040,
2025-09-25T05:45:33.510609+00:00,5.220000,-0.001900,
2025-09-25T05:45:33.515609+00:00,5.225000,-0.005320,
2025-09-25T05:45:33.520609+00:00,5.230000,-0.007220,
2025-09-25T05:45:33.525609+00:00,5.235000,-0.004560,
2025-09-25T05:45:33.530609+00:00,5.240000,0.000380,
2025-09-25T05:45:33.535609+00:00,5.245000,0.004560,
2025-09-25T05:45:33.540609+00:00,5.250000,0.004560,
2025-09-25T05:45:33.545609+00:00,5.255000,0.003800,
2025-09-25T05:45:33.550609+00:00,5.260000,0.006840,
2025-09-25T05:45:33.555609+00:00,5.265000,0.011780,
2025-09-25T05:45:33.560609+00:00,5.270000,0.013300,
2025-09-25T05:45:33.565609+00:00,5.275000,0.013300,
2025-09-25T05:45:33.570609+00:00,5.280000,0.007600,
2025-09-25T05:45:33.575609+00:00,5.285000,0.001520,
2025-09-25T05:45:33.580609+00:00,5.290000,0.000380,
2025-09-25T05:45:33.585609+00:00,5.295000,0.000000,
2025-09-25T05:45:33.590609+00:00,5.300000,-0.003420,
2025-09-25T05:45:33.595609+00:00,5.305000,-0.004940,
2025-09-25T05:45:33.600609+00:00,5.310000,-0.006080,
2025-09-25T05:45:33.605609+00:00,5.315000,-0.009120,
2025-09-25T05:45:33.610609+00:00,5.320000,-0.015580,
2025-09-25T05:45:33.615609+00:00,5.325000,-0.019760,
2025-09-25T05:45:33.620609+00:00,5.330000,-0.020520,
2025-09-25T05:45:33.625609+00:00,5.335000,-0.014820,
2025-09-25T05:45:33.630609+00:00,5.340000,-0.013300,
2025-09-25T05:45:33.635609+00:00,5.345000,-0.014440,
2025-09-25T05:45:33.640609+00:00,5.350000,-0.014060,
2025-09-25T05:45:33.645609+00:00,5.355000,-0.010260,
2025-09-25T05:45:33.650609+00:00,5.360000,-0.006080,
2025-09-25T05:45:33.655609+00:00,5.365000,-0.001140,
2025-09-25T05:45:33.660609+00:00,5.370000,0.000380,
2025-09-25T05:45:33.665609+00:00,5.375000,0.000380,
2025-09-25T05:45:33.670609+00:00,5.380000,-0.001140,
2025-09-25T05:45:33.675609+00:00,5.385000,-0.001520,
2025-09-25T05:45:33.680609+00:00,5.390000,-0.001520,
2025-09-25T05:45:33.685609+00:00,5.395000,-0.001140,
2025-09-25T05:45:33.690609+00:00,5.400000,-0.002660,
2025-09-25T05:45:33.695609+00:00,5.405000,-0.009120,
2025-09-25T05:45:33.700609+00:00,5.410000,-0.015200,
2025-09-25T05:45:33.705609+00:00,5.415000,-0.020900,
2025-09-25T05:45:33.710609+00:00,5.420000,-0.022800,
2025-09-25T05:45:33.715609+00:00,5.425000,-0.023180,
2025-09-25T05:45:33.720609+00:00,5.430000,-0.020140,
2025-09-25T05:45:33.725609+00:00,5.435000,-0.013300,
2025-09-25T05:45:33.730609+00:00,5.440000,-0.008740,
2025-09-25T05:45:33.735609+00:00,5.445000,-0.012160,
2025-09-25T05:45:33.740609+00:00,5.450000,-0.020900,
2025-09-25T05:45:33.745609+00:00,5.455000,-0.024700,
2025-09-25T05:45:33.750609+00:00,5.460000,-0.020900,
2025-09-25T05:45:33.755609+00:00,5.465000,-0.015580,
2025-09-25T05:45:33.760609+00:00,5.470000,-0.013300,
2025-09-25T05:45:33.765609+00:00,5.475000,-0.017480,
2025-09-25T05:45:33.770609+00:00,5.480000,-0.022800,
2025-09-25T05:45:33.775609+00:00,5.485000,-0.023560,
2025-09-25T05:45:33.780609+00:00,5.490000,-0.022040,
2025-09-25T05:45:33.785609+00:00,5.495000,-0.021280,
2025-09-25T05:45:33.790609+00:00,5.500000,-0.022420,
2025-09-25T05:45:33.795609+00:00,5.505000,-0.022800,
2025-09-25T05:45:33.800609+00:00,5.510000,-0.022420,
2025-09-25T05:45:33.805609+00:00,5.515000,-0.022420,
2025-09-25T05:45:33.810609+00:00,5.520000,-0.023560,
2025-09-25T05:45:33.815609+00:00,5.525000,-0.023940,
2025-09-25T05:45:33.820609+00:00,5.530000,-0.025080,
2025-09-25T05:45:33.825609+00:00,5.535000,-0.027740,
2025-09-25T05:45:33.830609+00:00,5.540000,-0.030780,
2025-09-25T05:45:33.835609+00:00,5.545000,-0.029640,
2025-09-25T05:45:33.840609+00:00,5.550000,-0.023180,
2025-09-25T05:45:33.845609+00:00,5.555000,-0.017860,
2025-09-25T05:45:33.850609+00:00,5.560000,-0.018240,
2025-09-25T05:45:33.855609+00:00,5.565000,-0.020520,
2025-09-25T05:45:33.860609+00:00,5.570000,-0.026600,
2025-09-25T05:45:33.865609+00:00,5.575000,-0.031540,
2025-09-25T05:45:33.870609+00:00,5.580000,-0.035340,
2025-09-25T05:45:33.875609+00:00,5.585000,-0.033060,
2025-09-25T05:45:33.880609+00:00,5.590000,-0.031920,
2025-09-25T05:45:33.885609+00:00,5.595000,-0.030780,
2025-09-25T05:45:33.890609+00:00,5.600000,-0.031920,
2025-09-25T05:45:33.895609+00:00,5.605000,-0.033820,
2025-09-25T05:45:33.900609+00:00,5.610000,-0.036100,
2025-09-25T05:45:33.905609+00:00,5.615000,-0.038760,
2025-09-25T05:45:33.910609+00:00,5.620000,-0.040660,
2025-09-25T05:45:33.915609+00:00,5.625000,-0.041800,
2025-09-25T05:45:33.920609+00:00,5.630000,-0.039520,
2025-09-25T05:45:33.925609+00:00,5.635000,-0.034960,
2025-09-25T05:45:33.930609+00:00,5.640000,-0.031920,
2025-09-25T05:45:33.935609+00:00,5.645000,-0.030400,
2025-09-25T05:45:33.940609+00:00,5.650000,-0.025460,
2025-09-25T05:45:33.945609+00:00,5.655000,-0.020140,
2025-09-25T05:45:33.950609+00:00,5.660000,-0.017860,
2025-09-25T05:45:33.955609+00:00,5.665000,-0.022040,
2025-09-25T05:45:33.960609+00:00,5.670000,-0.029640,
2025-09-25T05:45:33.965609+00:00,5.675000,-0.033440,
2025-09-25T05:45:33.970609+00:00,5.680000,-0.031160,
2025-09-25T05:45:33.975609+00:00,5.685000,-0.026980,
2025-09-25T05:45:33.980609+00:00,5.690000,-0.023940,
2025-09-25T05:45:33.985609+00:00,5.695000,-0.027360,
2025-09-25T05:45:33.990609+00:00,5.700000,-0.030020,
2025-09-25T05:45:33.995609+00:00,5.705000,-0.032680,
2025-09-25T05:45:34.000609+00:00,5.710000,-0.035720,
2025-09-25T05:45:34.005609+00:00,5.715000,-0.038760,
2025-09-25T05:45:34.010609+00:00,5.720000,-0.039140,
2025-09-25T05:45:34.015609+00:00,5.725000,-0.035720,
2025-09-25T05:45:34.020609+00:00,5.730000,-0.033060,
2025-09-25T05:45:34.025609+00:00,5.735000,-0.039140,
2025-09-25T05:45:34.030609+00:00,5.740000,-0.047500,
2025-09-25T05:45:34.035609+00:00,5.745000,-0.049400,
2025-09-25T05:45:34.040609+00:00,5.750000,-0.043320,
2025-09-25T05:45:34.045609+00:00,5.755000,-0.038380,
2025-09-25T05:45:34.050609+00:00,5.760000,-0.039140,
2025-09-25T05:45:34.055609+00:00,5.765000,-0.041420,
2025-09-25T05:45:34.060609+00:00,5.770000,-0.041420,
2025-09-25T05:45:34.065609+00:00,5.775000,-0.038760,
2025-09-25T05:45:34.070609+00:00,5.780000,-0.036860,
2025-09-25T05:45:34.075609+00:00,5.785000,-0.037620,
2025-09-25T05:45:34.080609+00:00,5.790000,-0.037240,
2025-09-25T05:45:34.085609+00:00,5.795000,-0.033440,
2025-09-25T05:45:34.090609+00:00,5.800000,-0.030020,
2025-09-25T05:45:34.095609+00:00,5.805000,-0.028500,
2025-09-25T05:45:34.100609+00:00,5.810000,-0.028880,
2025-09-25T05:45:34.105609+00:00,5.815000,-0.029260,
2025-09-25T05:45:34.110609+00:00,5.820000,-0.030020,
2025-09-25T05:45:34.115609+00:00,5.825000,-0.034580,
2025-09-25T05:45:34.120609+00:00,5.830000,-0.041040,
2025-09-25T05:45:34.125609+00:00,5.835000,-0.044840,
2025-09-25T05:45:34.130609+00:00,5.840000,-0.043700,
2025-09-25T05:45:34.135609+00:00,5.845000,-0.041800,
2025-09-25T05:45:34.140609+00:00,5.850000,-0.042560,
2025-09-25T05:45:34.145609+00:00,5.855000,-0.042560,
2025-09-25T05:45:34.150609+00:00,5.860000,-0.042940,
2025-09-25T05:45:34.155609+00:00,5.865000,-0.042180,
2025-09-25T05:45:34.160609+00:00,5.870000,-0.043320,
2025-09-25T05:45:34.165609+00:00,5.875000,-0.045220,
2025-09-25T05:45:34.170609+00:00,5.880000,-0.048640,
2025-09-25T05:45:34.175609+00:00,5.885000,-0.049400,
2025-09-25T05:45:34.180609+00:00,5.890000,-0.047880,
2025-09-25T05:45:34.185609+00:00,5.895000,-0.046360,
2025-09-25T05:45:34.190609+00:00,5.900000,-0.043700,
2025-09-25T05:45:34.195609+00:00,5.905000,-0.040280,
2025-09-25T05:45:34.200609+00:00,5.910000,-0.038000,
2025-09-25T05:45:34.205609+00:00,5.915000,-0.035720,
2025-09-25T05:45:34.210609+00:00,5.920000,-0.033440,
2025-09-25T05:45:34.215609+00:00,5.925000,-0.031160,
2025-09-25T05:45:34.220609+00:00,5.930000,-0.033060,
2025-09-25T05:45:34.225609+00:00,5.935000,-0.037240,
2025-09-25T05:45:34.230609+00:00,5.940000,-0.041420,
2025-09-25T05:45:34.235609+00:00,5.945000,-0.039520,
2025-09-25T05:45:34.240609+00:00,5.950000,-0.038380,
2025-09-25T05:45:34.245609+00:00,5.955000,-0.042560,
2025-09-25T05:45:34.250609+00:00,5.960000,-0.050160,
2025-09-25T05:45:34.255609+00:00,5.965000,-0.050920,
2025-09-25T05:45:34.260609+00:00,5.970000,-0.045600,
2025-09-25T05:45:34.265609+00:00,5.975000,-0.040280,
2025-09-25T05:45:34.270609+00:00,5.980000,-0.040660,
2025-09-25T05:45:34.275609+00:00,5.985000,-0.038380,
2025-09-25T05:45:34.280609+00:00,5.990000,-0.032680,
2025-09-25T05:45:34.285609+00:00,5.995000,-0.025840,
2025-09-25T05:45:34.290609+00:00,6.000000,-0.023560,
2025-09-25T05:45:34.295609+00:00,6.005000,-0.023560,
2025-09-25T05:45:34.300609+00:00,6.010000,-0.025080,
2025-09-25T05:45:34.305609+00:00,6.015000,-0.026220,
2025-09-25T05:45:34.310609+00:00,6.020000,-0.027360,
2025-09-25T05:45:34.315609+00:00,6.025000,-0.028500,
2025-09-25T05:45:34.320609+00:00,6.030000,-0.030020,
2025-09-25T05:45:34.325609+00:00,6.035000,-0.033060,
2025-09-25T05:45:34.330609+00:00,6.040000,-0.038380,
2025-09-25T05:45:34.335609+00:00,6.045000,-0.042560,
2025-09-25T05:45:34.340609+00:00,6.050000,-0.042180,
2025-09-25T05:45:34.345609+00:00,6.055000,-0.042560,
2025-09-25T05:45:34.350609+00:00,6.060000,-0.041800,
2025-09-25T05:45:34.355609+00:00,6.065000,-0.039900,
2025-09-25T05:45:34.360609+00:00,6.070000,-0.037620,
2025-09-25T05:45:34.365609+00:00,6.075000,-0.036860,
2025-09-25T05:45:34.370609+00:00,6.080000,-0.036480,
2025-09-25T05:45:34.375609+00:00,6.085000,-0.036860,
2025-09-25T05:45:34.380609+00:00,6.090000,-0.037620,
2025-09-25T05:45:34.385609+00:00,6.095000,-0.038760,
2025-09-25T05:45:34.390609+00:00,6.100000,-0.041800,
2025-09-25T05:45:34.395609+00:00,6.105000,-0.041040,
2025-09-25T05:45:34.400609+00:00,6.110000,-0.036480,
2025-09-25T05:45:34.405609+00:00,6.115000,-0.029260,
2025-09-25T05:45:34.410609+00:00,6.120000,-0.028500,
2025-09-25T05:45:34.415609+00:00,6.125000,-0.035340,
2025-09-25T05:45:34.420609+00:00,6.130000,-0.038380,
2025-09-25T05:45:34.425609+00:00,6.135000,-0.030780,
2025-09-25T05:45:34.430609+00:00,6.140000,-0.022420,
2025-09-25T05:45:34.435609+00:00,6.145000,-0.023940,
2025-09-25T05:45:34.440609+00:00,6.150000,-0.031540,
2025-09-25T05:45:34.445609+00:00,6.155000,-0.036480,
2025-09-25T05:45:34.450609+00:00,6.160000,-0.036100,
2025-09-25T05:45:34.455609+00:00,6.165000,-0.032300,
2025-09-25T05:45:34.460609+00:00,6.170000,-0.032680,
2025-09-25T05:45:34.465609+00:00,6.175000,-0.031160,
2025-09-25T05:45:34.470609+00:00,6.180000,-0.030020,
2025-09-25T05:45:34.475609+00:00,6.185000,-0.030020,
2025-09-25T05:45:34.480609+00:00,6.190000,-0.032680,
2025-09-25T05:45:34.485609+00:00,6.195000,-0.033820,
2025-09-25T05:45:34.490609+00:00,6.200000,-0.036480,
2025-09-25T05:45:34.495609+00:00,6.205000,-0.036860,
2025-09-25T05:45:34.500609+00:00,6.210000,-0.040280,
2025-09-25T05:45:34.505609+00:00,6.215000,-0.043320,
2025-09-25T05:45:34.510609+00:00,6.220000,-0.046740,
2025-09-25T05:45:34.515609+00:00,6.225000,-0.046740,
2025-09-25T05:45:34.520609+00:00,6.230000,-0.047500,
2025-09-25T05:45:34.525609+00:00,6.235000,-0.046360,
2025-09-25T05:45:34.530609+00:00,6.240000,-0.044460,
2025-09-25T05:45:34.535609+00:00,6.245000,-0.041420,
2025-09-25T05:45:34.540609+00:00,6.250000,-0.042180,
2025-09-25T05:45:34.545609+00:00,6.255000,-0.048260,
2025-09-25T05:45:34.550609+00:00,6.260000,-0.052060,
2025-09-25T05:45:34.555609+00:00,6.265000,-0.045980,
2025-09-25T05:45:34.560609+00:00,6.270000,-0.034200,
2025-09-25T05:45:34.565609+00:00,6.275000,-0.031160,
2025-09-25T05:45:34.570609+00:00,6.280000,-0.040280,
2025-09-25T05:45:34.575609+00:00,6.285000,-0.052440,
2025-09-25T05:45:34.580609+00:00,6.290000,-0.053960,
2025-09-25T05:45:34.585609+00:00,6.295000,-0.048260,
2025-09-25T05:45:34.590609+00:00,6.300000,-0.044080,
2025-09-25T05:45:34.595609+00:00,6.305000,-0.042180,
2025-09-25T05:45:34.600609+00:00,6.310000,-0.045600,
2025-09-25T05:45:34.605609+00:00,6.315000,-0.049780,
2025-09-25T05:45:34.610609+00:00,6.320000,-0.048260,
2025-09-25T05:45:34.615609+00:00,6.325000,-0.039900,
2025-09-25T05:45:34.620609+00:00,6.330000,-0.030400,
2025-09-25T05:45:34.625609+00:00,6.335000,-0.027360,
2025-09-25T05:45:34.630609+00:00,6.340000,-0.033440,
2025-09-25T05:45:34.635609+00:00,6.345000,-0.039140,
2025-09-25T05:45:34.640609+00:00,6.350000,-0.039900,
2025-09-25T05:45:34.645609+00:00,6.355000,-0.035720,
2025-09-25T05:45:34.650609+00:00,6.360000,-0.033060,
2025-09-25T05:45:34.655609+00:00,6.365000,-0.029260,
2025-09-25T05:45:34.660609+00:00,6.370000,-0.028880,
2025-09-25T05:45:34.665609+00:00,6.375000,-0.031160,
2025-09-25T05:45:34.670609+00:00,6.380000,-0.037240,
2025-09-25T05:45:34.675609+00:00,6.385000,-0.041040,
2025-09-25T05:45:34.680609+00:00,6.390000,-0.043700,
2025-09-25T05:45:34.685609+00:00,6.395000,-0.047120,
2025-09-25T05:45:34.690609+00:00,6.400000,-0.047880,
2025-09-25T05:45:34.695609+00:00,6.405000,-0.046360,
2025-09-25T05:45:34.700609+00:00,6.410000,-0.041420,
2025-09-25T05:45:34.705609+00:00,6.415000,-0.038760,
2025-09-25T05:45:34.710609+00:00,6.420000,-0.041800,
2025-09-25T05:45:34.715609+00:00,6.425000,-0.048640,
2025-09-25T05:45:34.720609+00:00,6.430000,-0.052820,
2025-09-25T05:45:34.725609+00:00,6.435000,-0.051300,
2025-09-25T05:45:34.730609+00:00,6.440000,-0.046740,
2025-09-25T05:45:34.735609+00:00,6.445000,-0.044460,
2025-09-25T05:45:34.740609+00:00,6.450000,-0.045220,
2025-09-25T05:45:34.745609+00:00,6.455000,-0.047120,
2025-09-25T05:45:34.750609+00:00,6.460000,-0.046360,
2025-09-25T05:45:34.755609+00:00,6.465000,-0.045600,
2025-09-25T05:45:34.760609+00:00,6.470000,-0.047880,
2025-09-25T05:45:34.765609+00:00,6.475000,-0.046360,
2025-09-25T05:45:34.770609+00:00,6.480000,-0.044460,
2025-09-25T05:45:34.775609+00:00,6.485000,-0.042560,
2025-09-25T05:45:34.780609+00:00,6.490000,-0.044460,
2025-09-25T05:45:34.785609+00:00,6.495000,-0.044080,
2025-09-25T05:45:34.790609+00:00,6.500000,-0.039900,
2025-09-25T05:45:34.795609+00:00,6.505000,-0.031920,
2025-09-25T05:45:34.800609+00:00,6.510000,-0.027360,
2025-09-25T05:45:34.805609+00:00,6.515000,-0.029260,
2025-09-25T05:45:34.810609+00:00,6.520000,-0.033820,
2025-09-25T05:45:34.815609+00:00,6.525000,-0.036860,
2025-09-25T05:45:34.820609+00:00,6.530000,-0.037620,
2025-09-25T05:45:34.825609+00:00,6.535000,-0.039900,
2025-09-25T05:45:34.830609+00:00,6.540000,-0.042180,
2025-09-25T05:45:34.835609+00:00,6.545000,-0.043320,
2025-09-25T05:45:34.840609+00:00,6.550000,-0.042560,
2025-09-25T05:45:34.845609+00:00,6.555000,-0.040660,
2025-09-25T05:45:34.850609+00:00,6.560000,-0.038380,
2025-09-25T05:45:34.855609+00:00,6.565000,-0.036480,
2025-09-25T05:45:34.860609+00:00,6.570000,-0.038380,
2025-09-25T05:45:34.865609+00:00,6.575000,-0.042940,
2025-09-25T05:45:34.870609+00:00,6.580000,-0.044840,
2025-09-25T05:45:34.875609+00:00,6.585000,-0.039900,
2025-09-25T05:45:34.880609+00:00,6.590000,-0.035720,
2025-09-25T05:45:34.885609+00:00,6.595000,-0.040280,
2025-09-25T05:45:34.890609+00:00,6.600000,-0.048640,
2025-09-25T05:45:34.895609+00:00,6.605000,-0.052060,
2025-09-25T05:45:34.900609+00:00,6.610000,-0.049020,
2025-09-25T05:45:34.905609+00:00,6.615000,-0.045980,
2025-09-25T05:45:34.910609+00:00,6.620000,-0.048260,
2025-09-25T05:45:34.915609+00:00,6.625000,-0.053200,
2025-09-25T05:45:34.920609+00:00,6.630000,-0.055480,
2025-09-25T05:45:34.925609+00:00,6.635000,-0.054340,
2025-09-25T05:45:34.930609+00:00,6.640000,-0.048260,
2025-09-25T05:45:34.935609+00:00,6.645000,-0.043320,
2025-09-25T05:45:34.940609+00:00,6.650000,-0.041420,
2025-09-25T05:45:34.945609+00:00,6.655000,-0.042560,
2025-09-25T05:45:34.950609+00:00,6.660000,-0.044460,
2025-09-25T05:45:34.955609+00:00,6.665000,-0.041800,
2025-09-25T05:45:34.960609+00:00,6.670000,-0.039140,
2025-09-25T05:45:34.965609+00:00,6.675000,-0.038760,
2025-09-25T05:45:34.970609+00:00,6.680000,-0.044080,
2025-09-25T05:45:34.975609+00:00,6.685000,-0.046360,
2025-09-25T05:45:34.980609+00:00,6.690000,-0.045980,
2025-09-25T05:45:34.985609+00:00,6.695000,-0.042560,
2025-09-25T05:45:34.990609+00:00,6.700000,-0.040280,
2025-09-25T05:45:34.995609+00:00,6.705000,-0.041800,
2025-09-25T05:45:35.000609+00:00,6.710000,-0.046740,
2025-09-25T05:45:35.005609+00:00,6.715000,-0.047880,
2025-09-25T05:45:35.010609+00:00,6.720000,-0.046360,
2025-09-25T05:45:35.015609+00:00,6.725000,-0.045600,
2025-09-25T05:45:35.020609+00:00,6.730000,-0.046360,
2025-09-25T05:45:35.025609+00:00,6.735000,-0.046360,
2025-09-25T05:45:35.030609+00:00,6.740000,-0.045600,
2025-09-25T05:45:35.035609+00:00,6.745000,-0.044080,
2025-09-25T05:45:35.040609+00:00,6.750000,-0.046360,
2025-09-25T05:45:35.045609+00:00,6.755000,-0.051300,
2025-09-25T05:45:35.050609+00:00,6.760000,-0.049780,
2025-09-25T05:45:35.055609+00:00,6.765000,-0.043700,
2025-09-25T05:45:35.060609+00:00,6.770000,-0.038000,
2025-09-25T05:45:35.065609+00:00,6.775000,-0.036480,
2025-09-25T05:45:35.070609+00:00,6.780000,-0.035720,
2025-09-25T05:45:35.075609+00:00,6.785000,-0.035340,
2025-09-25T05:45:35.080609+00:00,6.790000,-0.036100,
2025-09-25T05:45:35.085609+00:00,6.795000,-0.038000,
2025-09-25T05:45:35.090609+00:00,6.800000,-0.035720,
2025-09-25T05:45:35.095609+00:00,6.805000,-0.033060,
2025-09-25T05:45:35.100609+00:00,6.810000,-0.032680,
2025-09-25T05:45:35.105609+00:00,6.815000,-0.034960,
2025-09-25T05:45:35.110609+00:00,6.820000,-0.035720,
2025-09-25T05:45:35.115609+00:00,6.825000,-0.035340,
2025-09-25T05:45:35.120609+00:00,6.830000,-0.033440,
2025-09-25T05:45:35.125609+00:00,6.835000,-0.032300,
2025-09-25T05:45:35.130609+00:00,6.840000,-0.030400,
2025-09-25T05:45:35.135609+00:00,6.845000,-0.029640,
2025-09-25T05:45:35.140609+00:00,6.850000,-0.031540,
2025-09-25T05:45:35.145609+00:00,6.855000,-0.034960,
2025-09-25T05:45:35.150609+00:00,6.860000,-0.035340,
2025-09-25T05:45:35.155609+00:00,6.865000,-0.032680,
2025-09-25T05:45:35.160609+00:00,6.870000,-0.033060,
2025-09-25T05:45:35.165609+00:00,6.875000,-0.037240,
2025-09-25T05:45:35.170609+00:00,6.880000,-0.040660,
2025-09-25T05:45:35.175609+00:00,6.885000,-0.041800,
2025-09-25T05:45:35.180609+00:00,6.890000,-0.041800,
2025-09-25T05:45:35.185609+00:00,6.895000,-0.038380,
2025-09-25T05:45:35.190609+00:00,6.900000,-0.038380,
2025-09-25T05:45:35.195609+00:00,6.905000,-0.039140,
2025-09-25T05:45:35.200609+00:00,6.910000,-0.040280,
2025-09-25T05:45:35.205609+00:00,6.915000,-0.038760,
2025-09-25T05:45:35.210609+00:00,6.920000,-0.035720,
2025-09-25T05:45:35.215609+00:00,6.925000,-0.034580,
2025-09-25T05:45:35.220609+00:00,6.930000,-0.038380,
2025-09-25T05:45:35.225609+00:00,6.935000,-0.043700,
2025-09-25T05:45:35.230609+00:00,6.940000,-0.049400,
2025-09-25T05:45:35.235609+00:00,6.945000,-0.056240,
2025-09-25T05:45:35.240609+00:00,6.950000,-0.064600,
2025-09-25T05:45:35.245609+00:00,6.955000,-0.063840,
2025-09-25T05:45:35.250609+00:00,6.960000,-0.057380,
2025-09-25T05:45:35.255609+00:00,6.965000,-0.053960,
2025-09-25T05:45:35.260609+00:00,6.970000,-0.062320,
2025-09-25T05:45:35.265609+00:00,6.975000,-0.074100,
2025-09-25T05:45:35.270609+00:00,6.980000,-0.073340,
2025-09-25T05:45:35.275609+00:00,6.985000,-0.059660,
2025-09-25T05:45:35.280609+00:00,6.990000,-0.052440,
2025-09-25T05:45:35.285609+00:00,6.995000,-0.058520,
2025-09-25T05:45:35.290609+00:00,7.000000,-0.073720,
2025-09-25T05:45:35.295609+00:00,7.005000,-0.083220,
2025-09-25T05:45:35.300609+00:00,7.010000,-0.088540,
2025-09-25T05:45:35.305609+00:00,7.015000,-0.087780,
2025-09-25T05:45:35.310609+00:00,7.020000,-0.089300,
2025-09-25T05:45:35.315609+00:00,7.025000,-0.091200,
2025-09-25T05:45:35.320609+00:00,7.030000,-0.089680,
2025-09-25T05:45:35.325609+00:00,7.035000,-0.082840,
2025-09-25T05:45:35.330609+00:00,7.040000,-0.081320,
2025-09-25T05:45:35.335609+00:00,7.045000,-0.092720,
2025-09-25T05:45:35.340609+00:00,7.050000,-0.115520,
2025-09-25T05:45:35.345609+00:00,7.055000,-0.140220,
2025-09-25T05:45:35.350609+00:00,7.060000,-0.153140,
2025-09-25T05:45:35.355609+00:00,7.065000,-0.151240,
2025-09-25T05:45:35.360609+00:00,7.070000,-0.147060,
2025-09-25T05:45:35.365609+00:00,7.075000,-0.150860,
2025-09-25T05:45:35.370609+00:00,7.080000,-0.163020,
2025-09-25T05:45:35.375609+00:00,7.085000,-0.172520,
2025-09-25T05:45:35.380609+00:00,7.090000,-0.172900,
2025-09-25T05:45:35.385609+00:00,7.095000,-0.172140,
2025-09-25T05:45:35.390609+00:00,7.100000,-0.175180,
2025-09-25T05:45:35.395609+00:00,7.105000,-0.178600,
2025-09-25T05:45:35.400609+00:00,7.110000,-0.175180,
2025-09-25T05:45:35.405609+00:00,7.115000,-0.170620,
2025-09-25T05:45:35.410609+00:00,7.120000,-0.174040,
2025-09-25T05:45:35.415609+00:00,7.125000,-0.181640,
2025-09-25T05:45:35.420609+00:00,7.130000,-0.174800,
2025-09-25T05:45:35.425609+00:00,7.135000,-0.156560,
2025-09-25T05:45:35.430609+00:00,7.140000,-0.145920,
2025-09-25T05:45:35.435609+00:00,7.145000,-0.158840,
2025-09-25T05:45:35.440609+00:00,7.150000,-0.190380,
2025-09-25T05:45:35.445609+00:00,7.155000,-0.217740,
2025-09-25T05:45:35.450609+00:00,7.160000,-0.219260,
2025-09-25T05:45:35.455609+00:00,7.165000,-0.196840,
2025-09-25T05:45:35.460609+00:00,7.170000,-0.182020,
2025-09-25T05:45:35.465609+00:00,7.175000,-0.201780,
2025-09-25T05:45:35.470609+00:00,7.180000,-0.249280,
2025-09-25T05:45:35.475609+00:00,7.185000,-0.297160,
2025-09-25T05:45:35.480609+00:00,7.190000,-0.319960,
2025-09-25T05:45:35.485609+00:00,7.195000,-0.318060,
2025-09-25T05:45:35.490609+00:00,7.200000,-0.310460,
2025-09-25T05:45:35.495609+00:00,7.205000,-0.313500,
2025-09-25T05:45:35.500609+00:00,7.210000,-0.323760,
2025-09-25T05:45:35.505609+00:00,7.215000,-0.327180,
2025-09-25T05:45:35.510609+00:00,7.220000,-0.313120,
2025-09-25T05:45:35.515609+00:00,7.225000,-0.273220,
2025-09-25T05:45:35.520609+00:00,7.230000,-0.215080,
2025-09-25T05:45:35.525609+00:00,7.235000,-0.174040,
2025-09-25T05:45:35.530609+00:00,7.240000,-0.183920,
2025-09-25T05:45:35.535609+00:00,7.245000,-0.243200,
2025-09-25T05:45:35.540609+00:00,7.250000,-0.326800,
2025-09-25T05:45:35.545609+00:00,7.255000,-0.428640,
2025-09-25T05:45:35.550609+00:00,7.260000,-0.576840,
2025-09-25T05:45:35.555609+00:00,7.265000,-0.818900,
2025-09-25T05:45:35.560609+00:00,7.270000,-1.180660,
2025-09-25T05:45:35.565609+00:00,7.275000,-1.674660,
2025-09-25T05:45:35.570609+00:00,7.280000,-2.324460,
2025-09-25T05:45:35.575609+00:00,7.285000,-3.158560,
2025-09-25T05:45:35.580609+00:00,7.290000,-4.172780,
2025-09-25T05:45:35.585609+00:00,7.295000,-5.317720,
2025-09-25T05:45:35.590609+00:00,7.300000,-6.495340,
2025-09-25T05:45:35.595609+00:00,7.305000,-7.563520,
2025-09-25T05:45:35.600609+00:00,7.310000,-8.336060,
2025-09-25T05:45:35.605609+00:00,7.315000,-8.649560,
2025-09-25T05:45:35.610609+00:00,7.320000,-8.448160,
2025-09-25T05:45:35.615609+00:00,7.325000,-7.819640,
2025-09-25T05:45:35.620609+00:00,7.330000,-6.917520,
2025-09-25T05:45:35.625609+00:00,7.335000,-5.879360,
2025-09-25T05:45:35.630609+00:00,7.340000,-4.811180,
2025-09-25T05:45:35.635609+00:00,7.345000,-3.788600,
2025-09-25T05:45:35.640609+00:00,7.350000,-2.880780,
2025-09-25T05:45:35.645609+00:00,7.355000,-2.129140,
2025-09-25T05:45:35.650609+00:00,7.360000,-1.537480,
2025-09-25T05:45:35.655609+00:00,7.365000,-1.080340,
2025-09-25T05:45:35.660609+00:00,7.370000,-0.722380,
2025-09-25T05:45:35.665609+00:00,7.375000,-0.434340,
2025-09-25T05:45:35.670609+00:00,7.380000,-0.185060,
2025-09-25T05:45:35.675609+00:00,7.385000,0.031540,
2025-09-25T05:45:35.680609+00:00,7.390000,0.209000,
2025-09-25T05:45:35.685609+00:00,7.395000,0.337440,
2025-09-25T05:45:35.690609+00:00,7.400000,0.424840,
2025-09-25T05:45:35.695609+00:00,7.405000,0.501980,
2025-09-25T05:45:35.700609+00:00,7.410000,0.593940,
2025-09-25T05:45:35.705609+00:00,7.415000,0.707560,
2025-09-25T05:45:35.710609+00:00,7.420000,0.835240,
2025-09-25T05:45:35.715609+00:00,7.425000,0.983820,
2025-09-25T05:45:35.720609+00:00,7.430000,1.159000,
2025-09-25T05:45:35.725609+00:00,7.435000,1.350520,
2025-09-25T05:45:35.730609+00:00,7.440000,1.539380,
2025-09-25T05:45:35.735609+00:00,7.445000,1.699740,
2025-09-25T05:45:35.740609+00:00,7.450000,1.796260,
2025-09-25T05:45:35.745609+00:00,7.455000,1.812220,
2025-09-25T05:45:35.750609+00:00,7.460000,1.759020,
2025-09-25T05:45:35.755609+00:00,7.465000,1.656040,
2025-09-25T05:45:35.760609+00:00,7.470000,1.528360,
2025-09-25T05:45:35.765609+00:00,7.475000,1.406760,
2025-09-25T05:45:35.770609+00:00,7.480000,1.320120,
2025-09-25T05:45:35.775609+00:00,7.485000,1.268440,
2025-09-25T05:45:35.780609+00:00,7.490000,1.230060,
2025-09-25T05:45:35.785609+00:00,7.495000,1.193960,
2025-09-25T05:45:35.790609+00:00,7.500000,1.165080,
2025-09-25T05:45:35.795609+00:00,7.505000,1.138860,
2025-09-25T05:45:35.800609+00:00,7.510000,1.099340,
2025-09-25T05:45:35.805609+00:00,7.515000,1.043480,
2025-09-25T05:45:35.810609+00:00,7.520000,0.982680,
2025-09-25T05:45:35.815609+00:00,7.525000,0.925680,
2025-09-25T05:45:35.820609+00:00,7.530000,0.864880,
2025-09-25T05:45:35.825609+00:00,7.535000,0.763040,
2025-09-25T05:45:35.830609+00:00,7.540000,0.574560,
2025-09-25T05:45:35.835609+00:00,7.545000,0.313500,
2025-09-25T05:45:35.840609+00:00,7.550000,0.074860,
2025-09-25T05:45:35.845609+00:00,7.555000,-0.022420,
2025-09-25T05:45:35.850609+00:00,7.560000,0.057380,
2025-09-25T05:45:35.855609+00:00,7.565000,0.247760,
2025-09-25T05:45:35.860609+00:00,7.570000,0.432060,
2025-09-25T05:45:35.865609+00:00,7.575000,0.536180,
2025-09-25T05:45:35.870609+00:00,7.580000,0.579880,
2025-09-25T05:45:35.875609+00:00,7.585000,0.654740,
2025-09-25T05:45:35.880609+00:00,7.590000,0.842460,
2025-09-25T05:45:35.885609+00:00,7.595000,1.114920,
2025-09-25T05:45:35.890609+00:00,7.600000,1.368760,
2025-09-25T05:45:35.895609+00:00,7.605000,1.523040,
2025-09-25T05:45:35.900609+00:00,7.610000,1.592200,
2025-09-25T05:45:35.905609+00:00,7.615000,1.636660,
2025-09-25T05:45:35.910609+00:00,7.620000,1.685300,
2025-09-25T05:45:35.915609+00:00,7.625000,1.727480,
2025-09-25T05:45:35.920609+00:00,7.630000,1.746100,
2025-09-25T05:45:35.925609+00:00,7.635000,1.735080,
2025-09-25T05:45:35.930609+00:00,7.640000,1.694420,
2025-09-25T05:45:35.935609+00:00,7.645000,1.634380,
2025-09-25T05:45:35.940609+00:00,7.650000,1.575100,
2025-09-25T05:45:35.945609+00:00,7.655000,1.531400,
2025-09-25T05:45:35.950609+00:00,7.660000,1.502900,
2025-09-25T05:45:35.955609+00:00,7.665000,1.474400,
2025-09-25T05:45:35.960609+00:00,7.670000,1.428420,
2025-09-25T05:45:35.965609+00:00,7.675000,1.367240,
2025-09-25T05:45:35.970609+00:00,7.680000,1.309480,
2025-09-25T05:45:35.975609+00:00,7.685000,1.284400,
2025-09-25T05:45:35.980609+00:00,7.690000,1.296560,
2025-09-25T05:45:35.985609+00:00,7.695000,1.319740,
2025-09-25T05:45:35.990609+00:00,7.700000,1.326200,
2025-09-25T05:45:35.995609+00:00,7.705000,1.315940,
2025-09-25T05:45:36.000609+00:00,7.710000,1.313660,
2025-09-25T05:45:36.005609+00:00,7.715000,1.341020,
2025-09-25T05:45:36.010609+00:00,7.720000,1.380920,
2025-09-25T05:45:36.015609+00:00,7.725000,1.410940,
2025-09-25T05:45:36.020609+00:00,7.730000,1.436400,
2025-09-25T05:45:36.025609+00:00,7.735000,1.470980,
2025-09-25T05:45:36.030609+00:00,7.740000,1.508220,
2025-09-25T05:45:36.035609+00:00,7.745000,1.531780,
2025-09-25T05:45:36.040609+00:00,7.750000,1.541280,
2025-09-25T05:45:36.045609+00:00,7.755000,1.546220,
2025-09-25T05:45:36.050609+00:00,7.760000,1.556480,
2025-09-25T05:45:36.055609+00:00,7.765000,1.580420,
2025-09-25T05:45:36.060609+00:00,7.770000,1.603220,
2025-09-25T05:45:36.065609+00:00,7.775000,1.608540,
2025-09-25T05:45:36.070609+00:00,7.780000,1.597900,
2025-09-25T05:45:36.075609+00:00,7.785000,1.596760,
2025-09-25T05:45:36.080609+00:00,7.790000,1.613480,
2025-09-25T05:45:36.085609+00:00,7.795000,1.638940,
2025-09-25T05:45:36.090609+00:00,7.800000,1.664020,
2025-09-25T05:45:36.095609+00:00,7.805000,1.697460,
2025-09-25T05:45:36.100609+00:00,7.810000,1.749140,
2025-09-25T05:45:36.105609+00:00,7.815000,1.809940,
2025-09-25T05:45:36.110609+00:00,7.820000,1.866560,
2025-09-25T05:45:36.115609+00:00,7.825000,1.933820,
2025-09-25T05:45:36.120609+00:00,7.830000,2.031480,
2025-09-25T05:45:36.125609+00:00,7.835000,2.142060,
2025-09-25T05:45:36.130609+00:00,7.840000,2.235920,
2025-09-25T05:45:36.135609+00:00,7.845000,2.305460,
2025-09-25T05:45:36.140609+00:00,7.850000,2.359040,
2025-09-25T05:45:36.145609+00:00,7.855000,2.373860,
2025-09-25T05:45:36.150609+00:00,7.860000,2.287600,
2025-09-25T05:45:36.155609+00:00,7.865000,2.060740,
2025-09-25T05:45:36.160609+00:00,7.870000,1.724060,
2025-09-25T05:45:36.165609+00:00,7.875000,1.364200,
2025-09-25T05:45:36.170609+00:00,7.880000,1.052220,
2025-09-25T05:45:36.175609+00:00,7.885000,0.804080,
2025-09-25T05:45:36.180609+00:00,7.890000,0.599260,
2025-09-25T05:45:36.185609+00:00,7.895000,0.416480,
2025-09-25T05:45:36.190609+00:00,7.900000,0.252320,
2025-09-25T05:45:36.195609+00:00,7.905000,0.110580,
2025-09-25T05:45:36.200609+00:00,7.910000,-0.005320,
2025-09-25T05:45:36.205609+00:00,7.915000,-0.092340,
2025-09-25T05:45:36.210609+00:00,7.920000,-0.139460,
2025-09-25T05:45:36.215609+00:00,7.925000,-0.151620,
2025-09-25T05:45:36.220609+00:00,7.930000,-0.152000,
2025-09-25T05:45:36.225609+00:00,7.935000,-0.155040,
2025-09-25T05:45:36.230609+00:00,7.940000,-0.147820,
2025-09-25T05:45:36.235609+00:00,7.945000,-0.115900,
2025-09-25T05:45:36.240609+00:00,7.950000,-0.071820,
2025-09-25T05:45:36.245609+00:00,7.955000,-0.052440,
2025-09-25T05:45:36.250609+00:00,7.960000,-0.060040,
2025-09-25T05:45:36.255609+00:00,7.965000,-0.062320,
2025-09-25T05:45:36.260609+00:00,7.970000,-0.042940,
2025-09-25T05:45:36.265609+00:00,7.975000,-0.031160,
2025-09-25T05:45:36.270609+00:00,7.980000,-0.049400,
2025-09-25T05:45:36.275609+00:00,7.985000,-0.095760,
2025-09-25T05:45:36.280609+00:00,7.990000,-0.148200,
2025-09-25T05:45:36.285609+00:00,7.995000,-0.188100,
2025-09-25T05:45:36.290609+00:00,8.000000,-0.218500,
2025-09-25T05:45:36.295609+00:00,8.005000,-0.242440,
2025-09-25T05:45:36.300609+00:00,8.010000,-0.246240,
2025-09-25T05:45:36.305609+00:00,8.015000,-0.224580,
2025-09-25T05:45:36.310609+00:00,8.020000,-0.202920,
2025-09-25T05:45:36.315609+00:00,8.025000,-0.226480,
2025-09-25T05:45:36.320609+00:00,8.030000,-0.313880,
2025-09-25T05:45:36.325609+00:00,8.035000,-0.442320,
2025-09-25T05:45:36.330609+00:00,8.040000,-0.573040,
2025-09-25T05:45:36.335609+00:00,8.045000,-0.681720,
2025-09-25T05:45:36.340609+00:00,8.050000,-0.744040,
2025-09-25T05:45:36.345609+00:00,8.055000,-0.725040,
2025-09-25T05:45:36.350609+00:00,8.060000,-0.627760,
2025-09-25T05:45:36.355609+00:00,8.065000,-0.501980,
2025-09-25T05:45:36.360609+00:00,8.070000,-0.410020,
2025-09-25T05:45:36.365609+00:00,8.075000,-0.370500,
2025-09-25T05:45:36.370609+00:00,8.080000,-0.346940,
2025-09-25T05:45:36.375609+00:00,8.085000,-0.297920,
2025-09-25T05:45:36.380609+00:00,8.090000,-0.215080,
2025-09-25T05:45:36.385609+00:00,8.095000,-0.123500,
2025-09-25T05:45:36.390609+00:00,8.100000,-0.033820,
2025-09-25T05:45:36.395609+00:00,8.105000,0.095380,
2025-09-25T05:45:36.400609+00:00,8.110000,0.311220,
2025-09-25T05:45:36.405609+00:00,8.115000,0.591280,
2025-09-25T05:45:36.410609+00:00,8.120000,0.857280,
2025-09-25T05:45:36.415609+00:00,8.125000,1.065520,
2025-09-25T05:45:36.420609+00:00,8.130000,1.236900,
2025-09-25T05:45:36.425609+00:00,8.135000,1.404480,
2025-09-25T05:45:36.430609+00:00,8.140000,1.558380,
2025-09-25T05:45:36.435609+00:00,8.145000,1.659460,
2025-09-25T05:45:36.440609+00:00,8.150000,1.678080,
2025-09-25T05:45:36.445609+00:00,8.155000,1.606640,
2025-09-25T05:45:36.450609+00:00,8.160000,1.457300,
2025-09-25T05:45:36.455609+00:00,8.165000,1.267300,
2025-09-25T05:45:36.460609+00:00,8.170000,1.066280,
2025-09-25T05:45:36.465609+00:00,8.175000,0.855760,
2025-09-25T05:45:36.470609+00:00,8.180000,0.621680,
2025-09-25T05:45:36.475609+00:00,8.185000,0.371260,
2025-09-25T05:45:36.480609+00:00,8.190000,0.123120,
2025-09-25T05:45:36.485609+00:00,8.195000,-0.100320,
2025-09-25T05:45:36.490609+00:00,8.200000,-0.287660,
2025-09-25T05:45:36.495609+00:00,8.205000,-0.440800,
2025-09-25T05:45:36.500609+00:00,8.210000,-0.553280,
2025-09-25T05:45:36.505609+00:00,8.215000,-0.619780,
2025-09-25T05:45:36.510609+00:00,8.220000,-0.640300,
2025-09-25T05:45:36.515609+00:00,8.225000,-0.629660,
2025-09-25T05:45:36.520609+00:00,8.230000,-0.602680,
2025-09-25T05:45:36.525609+00:00,8.235000,-0.571140,
2025-09-25T05:45:36.530609+00:00,8.240000,-0.546820,
2025-09-25T05:45:36.535609+00:00,8.245000,-0.528580,
2025-09-25T05:45:36.540609+00:00,8.250000,-0.510340,
2025-09-25T05:45:36.545609+00:00,8.255000,-0.485260,
2025-09-25T05:45:36.550609+00:00,8.260000,-0.457520,
2025-09-25T05:45:36.555609+00:00,8.265000,-0.431300,
2025-09-25T05:45:36.560609+00:00,8.270000,-0.407360,
2025-09-25T05:45:36.565609+00:00,8.275000,-0.368980,
2025-09-25T05:45:36.570609+00:00,8.280000,-0.298300,
2025-09-25T05:45:36.575609+00:00,8.285000,-0.196840,
2025-09-25T05:45:36.580609+00:00,8.290000,-0.077520,
2025-09-25T05:45:36.585609+00:00,8.295000,0.059280,
2025-09-25T05:45:36.590609+00:00,8.300000,0.221920,
2025-09-25T05:45:36.595609+00:00,8.305000,0.412680,
2025-09-25T05:45:36.600609+00:00,8.310000,0.611420,
2025-09-25T05:45:36.605609+00:00,8.315000,0.785840,
2025-09-25T05:45:36.610609+00:00,8.320000,0.919980,
2025-09-25T05:45:36.615609+00:00,8.325000,1.010420,
2025-09-25T05:45:36.620609+00:00,8.330000,1.053360,
2025-09-25T05:45:36.625609+00:00,8.335000,1.048040,
2025-09-25T05:45:36.630609+00:00,8.340000,0.986480,
2025-09-25T05:45:36.635609+00:00,8.345000,0.853480,
2025-09-25T05:45:36.640609+00:00,8.350000,0.647520,
2025-09-25T05:45:36.645609+00:00,8.355000,0.386460,
2025-09-25T05:45:36.650609+00:00,8.360000,0.086640,
2025-09-25T05:45:36.655609+00:00,8.365000,-0.272840,
2025-09-25T05:45:36.660609+00:00,8.370000,-0.695020,
2025-09-25T05:45:36.665609+00:00,8.375000,-1.071980,
2025-09-25T05:45:36.670609+00:00,8.380000,-1.228540,
2025-09-25T05:45:36.675609+00:00,8.385000,-1.101620,
2025-09-25T05:45:36.680609+00:00,8.390000,-0.817000,
2025-09-25T05:45:36.685609+00:00,8.395000,-0.543780,
2025-09-25T05:45:36.690609+00:00,8.400000,-0.321860,
2025-09-25T05:45:36.695609+00:00,8.405000,-0.111340,
2025-09-25T05:45:36.700609+00:00,8.410000,0.094620,
2025-09-25T05:45:36.705609+00:00,8.415000,0.236740,
2025-09-25T05:45:36.710609+00:00,8.420000,0.311980,
2025-09-25T05:45:36.715609+00:00,8.425000,0.409640,
2025-09-25T05:45:36.720609+00:00,8.430000,0.573800,
2025-09-25T05:45:36.725609+00:00,8.435000,0.687420,
2025-09-25T05:45:36.730609+00:00,8.440000,0.573800,
2025-09-25T05:45:36.735609+00:00,8.445000,0.193800,
2025-09-25T05:45:36.740609+00:00,8.450000,-0.310840,
2025-09-25T05:45:36.745609+00:00,8.455000,-0.772540,
2025-09-25T05:45:36.750609+00:00,8.460000,-1.130500,
2025-09-25T05:45:36.755609+00:00,8.465000,-1.392700,
2025-09-25T05:45:36.760609+00:00,8.470000,-1.551540,
2025-09-25T05:45:36.765609+00:00,8.475000,-1.610440,
2025-09-25T05:45:36.770609+00:00,8.480000,-1.638940,
2025-09-25T05:45:36.775609+00:00,8.485000,-1.740020,
2025-09-25T05:45:36.780609+00:00,8.490000,-1.931160,
2025-09-25T05:45:36.785609+00:00,8.495000,-2.133320,
2025-09-25T05:45:36.790609+00:00,8.500000,-2.246560,
2025-09-25T05:45:36.795609+00:00,8.505000,-2.249600,
2025-09-25T05:45:36.800609+00:00,8.510000,-2.240480,
2025-09-25T05:45:36.805609+00:00,8.515000,-2.364740,
2025-09-25T05:45:36.810609+00:00,8.520000,-2.659620,
2025-09-25T05:45:36.815609+00:00,8.525000,-2.916120,
2025-09-25T05:45:36.820609+00:00,8.530000,-2.829480,
2025-09-25T05:45:36.825609+00:00,8.535000,-2.348780,
2025-09-25T05:45:36.830609+00:00,8.540000,-1.669340,
2025-09-25T05:45:36.835609+00:00,8.545000,-0.929480,
2025-09-25T05:45:36.840609+00:00,8.550000,-0.139080,
2025-09-25T05:45:36.845609+00:00,8.555000,0.698060,
2025-09-25T05:45:36.850609+00:00,8.560000,1.578140,
2025-09-25T05:45:36.855609+00:00,8.565000,2.536120,
2025-09-25T05:45:36.860609+00:00,8.570000,3.554900,
2025-09-25T05:45:36.865609+00:00,8.575000,4.537960,
2025-09-25T05:45:36.870609+00:00,8.580000,5.430580,
2025-09-25T05:45:36.875609+00:00,8.585000,6.277980,
2025-09-25T05:45:36.880609+00:00,8.590000,7.058880,
2025-09-25T05:45:36.885609+00:00,8.595000,7.567320,
2025-09-25T05:45:36.890609+00:00,8.600000,7.603800,
2025-09-25T05:45:36.895609+00:00,8.605000,7.197200,
2025-09-25T05:45:36.900609+00:00,8.610000,6.435680,
2025-09-25T05:45:36.905609+00:00,8.615000,5.228040,
2025-09-25T05:45:36.910609+00:00,8.620000,3.547680,
2025-09-25T05:45:36.915609+00:00,8.625000,1.726720,
2025-09-25T05:45:36.920609+00:00,8.630000,0.196080,
2025-09-25T05:45:36.925609+00:00,8.635000,-0.899460,
2025-09-25T05:45:36.930609+00:00,8.640000,-1.631340,
2025-09-25T05:45:36.935609+00:00,8.645000,-2.071380,
2025-09-25T05:45:36.940609+00:00,8.650000,-2.291780,
2025-09-25T05:45:36.945609+00:00,8.655000,-2.375760,
2025-09-25T05:45:36.950609+00:00,8.660000,-2.333960,
2025-09-25T05:45:36.955609+00:00,8.665000,-2.169420,
2025-09-25T05:45:36.960609+00:00,8.670000,-2.014000,
2025-09-25T05:45:36.965609+00:00,8.675000,-2.114700,
2025-09-25T05:45:36.970609+00:00,8.680000,-2.587420,
2025-09-25T05:45:36.975609+00:00,8.685000,-3.186680,
2025-09-25T05:45:36.980609+00:00,8.690000,-3.581500,
2025-09-25T05:45:36.985609+00:00,8.695000,-3.799240,
2025-09-25T05:45:36.990609+00:00,8.700000,-4.085760,
2025-09-25T05:45:36.995609+00:00,8.705000,-4.432700,
2025-09-25T05:45:37.000609+00:00,8.710000,-4.531500,
2025-09-25T05:45:37.005609+00:00,8.715000,-4.213440,
2025-09-25T05:45:37.010609+00:00,8.720000,-3.670420,
2025-09-25T05:45:37.015609+00:00,8.725000,-3.198080,
2025-09-25T05:45:37.020609+00:00,8.730000,-2.893700,
2025-09-25T05:45:37.025609+00:00,8.735000,-2.657340,
2025-09-25T05:45:37.030609+00:00,8.740000,-2.422880,
2025-09-25T05:45:37.035609+00:00,8.745000,-2.237440,
2025-09-25T05:45:37.040609+00:00,8.750000,-2.103300,
2025-09-25T05:45:37.045609+00:00,8.755000,-1.948640,
2025-09-25T05:45:37.050609+00:00,8.760000,-1.758260,
2025-09-25T05:45:37.055609+00:00,8.765000,-1.574340,
2025-09-25T05:45:37.060609+00:00,8.770000,-1.426900,
2025-09-25T05:45:37.065609+00:00,8.775000,-1.301120,
2025-09-25T05:45:37.070609+00:00,8.780000,-1.175340,
2025-09-25T05:45:37.075609+00:00,8.785000,-1.052600,
2025-09-25T05:45:37.080609+00:00,8.790000,-0.948100,
2025-09-25T05:45:37.085609+00:00,8.795000,-0.865640,
2025-09-25T05:45:37.090609+00:00,8.800000,-0.793440,
2025-09-25T05:45:37.095609+00:00,8.805000,-0.726560,
2025-09-25T05:45:37.100609+00:00,8.810000,-0.664240,
2025-09-25T05:45:37.105609+00:00,8.815000,-0.599640,
2025-09-25T05:45:37.110609+00:00,8.820000,-0.542260,
2025-09-25T05:45:37.115609+00:00,8.825000,-0.510340,
2025-09-25T05:45:37.120609+00:00,8.830000,-0.498940,
2025-09-25T05:45:37.125609+00:00,8.835000,-0.482980,
2025-09-25T05:45:37.130609+00:00,8.840000,-0.443460,
2025-09-25T05:45:37.135609+00:00,8.845000,-0.389500,
2025-09-25T05:45:37.140609+00:00,8.850000,-0.343900,
2025-09-25T05:45:37.145609+00:00,8.855000,-0.306280,
2025-09-25T05:45:37.150609+00:00,8.860000,-0.272080,
2025-09-25T05:45:37.155609+00:00,8.865000,-0.245860,
2025-09-25T05:45:37.160609+00:00,8.870000,-0.231420,
2025-09-25T05:45:37.165609+00:00,8.875000,-0.233320,
2025-09-25T05:45:37.170609+00:00,8.880000,-0.241300,
2025-09-25T05:45:37.175609+00:00,8.885000,-0.245480,
2025-09-25T05:45:37.180609+00:00,8.890000,-0.245860,
2025-09-25T05:45:37.185609+00:00,8.895000,-0.243960,
2025-09-25T05:45:37.190609+00:00,8.900000,-0.239780,
2025-09-25T05:45:37.195609+00:00,8.905000,-0.228760,
2025-09-25T05:45:37.200609+00:00,8.910000,-0.215840,
2025-09-25T05:45:37.205609+00:00,8.915000,-0.215840,
2025-09-25T05:45:37.210609+00:00,8.920000,-0.231420,
2025-09-25T05:45:37.215609+00:00,8.925000,-0.241300,
2025-09-25T05:45:37.220609+00:00,8.930000,-0.230280,
2025-09-25T05:45:37.225609+00:00,8.935000,-0.216980,
2025-09-25T05:45:37.230609+00:00,8.940000,-0.215840,
2025-09-25T05:45:37.235609+00:00,8.945000,-0.196840,
2025-09-25T05:45:37.240609+00:00,8.950000,-0.127680,
2025-09-25T05:45:37.245609+00:00,8.955000,-0.039520,
2025-09-25T05:45:37.250609+00:00,8.960000,0.002660,
2025-09-25T05:45:37.255609+00:00,8.965000,-0.023180,
2025-09-25T05:45:37.260609+00:00,8.970000,-0.079040,
2025-09-25T05:45:37.265609+00:00,8.975000,-0.118180,
2025-09-25T05:45:37.270609+00:00,8.980000,-0.128060,
2025-09-25T05:45:37.275609+00:00,8.985000,-0.116660,
2025-09-25T05:45:37.280609+00:00,8.990000,-0.099940,
2025-09-25T05:45:37.285609+00:00,8.995000,-0.087780,
2025-09-25T05:45:37.290609+00:00,9.000000,-0.088920,
2025-09-25T05:45:37.295609+00:00,9.005000,-0.089300,
2025-09-25T05:45:37.300609+00:00,9.010000,-0.077520,
2025-09-25T05:45:37.305609+00:00,9.015000,-0.061940,
2025-09-25T05:45:37.310609+00:00,9.020000,-0.052820,
2025-09-25T05:45:37.315609+00:00,9.025000,-0.050160,
2025-09-25T05:45:37.320609+00:00,9.030000,-0.054340,
2025-09-25T05:45:37.325609+00:00,9.035000,-0.068400,
2025-09-25T05:45:37.330609+00:00,9.040000,-0.084360,
2025-09-25T05:45:37.335609+00:00,9.045000,-0.085120,
2025-09-25T05:45:37.340609+00:00,9.050000,-0.065360,
2025-09-25T05:45:37.345609+00:00,9.055000,-0.045220,
2025-09-25T05:45:37.350609+00:00,9.060000,-0.041420,
2025-09-25T05:45:37.355609+00:00,9.065000,-0.049400,
2025-09-25T05:45:37.360609+00:00,9.070000,-0.060040,
2025-09-25T05:45:37.365609+00:00,9.075000,-0.060420,
2025-09-25T05:45:37.370609+00:00,9.080000,-0.047120,
2025-09-25T05:45:37.375609+00:00,9.085000,-0.025460,
2025-09-25T05:45:37.380609+00:00,9.090000,-0.005700,
2025-09-25T05:45:37.385609+00:00,9.095000,0.001520,
2025-09-25T05:45:37.390609+00:00,9.100000,-0.003040,
2025-09-25T05:45:37.395609+00:00,9.105000,-0.007600,
2025-09-25T05:45:37.400609+00:00,9.110000,-0.007600,
2025-09-25T05:45:37.405609+00:00,9.115000,-0.007600,
2025-09-25T05:45:37.410609+00:00,9.120000,-0.011400,
2025-09-25T05:45:37.415609+00:00,9.125000,-0.022420,
2025-09-25T05:45:37.420609+00:00,9.130000,-0.033820,
2025-09-25T05:45:37.425609+00:00,9.135000,-0.040660,
2025-09-25T05:45:37.430609+00:00,9.140000,-0.041420,
2025-09-25T05:45:37.435609+00:00,9.145000,-0.034200,
2025-09-25T05:45:37.440609+00:00,9.150000,-0.022800,
2025-09-25T05:45:37.445609+00:00,9.155000,-0.016340,
2025-09-25T05:45:37.450609+00:00,9.160000,-0.012540,
2025-09-25T05:45:37.455609+00:00,9.165000,-0.007220,
2025-09-25T05:45:37.460609+00:00,9.170000,0.000760,
2025-09-25T05:45:37.465609+00:00,9.175000,0.004940,
2025-09-25T05:45:37.470609+00:00,9.180000,0.004180,
2025-09-25T05:45:37.475609+00:00,9.185000,0.000000,
2025-09-25T05:45:37.480609+00:00,9.190000,-0.004180,
2025-09-25T05:45:37.485609+00:00,9.195000,-0.007600,
2025-09-25T05:45:37.490609+00:00,9.200000,-0.008740,
2025-09-25T05:45:37.495609+00:00,9.205000,-0.006080,
2025-09-25T05:45:37.500609+00:00,9.210000,0.001140,
2025-09-25T05:45:37.505609+00:00,9.215000,0.006840,
2025-09-25T05:45:37.510609+00:00,9.220000,0.007220,
2025-09-25T05:45:37.515609+00:00,9.225000,0.015200,
2025-09-25T05:45:37.520609+00:00,9.230000,0.034960,
2025-09-25T05:45:37.525609+00:00,9.235000,0.051300,
2025-09-25T05:45:37.530609+00:00,9.240000,0.060420,
2025-09-25T05:45:37.535609+00:00,9.245000,0.072960,
2025-09-25T05:45:37.540609+00:00,9.250000,0.087780,
2025-09-25T05:45:37.545609+00:00,9.255000,0.087020,
2025-09-25T05:45:37.550609+00:00,9.260000,0.070680,
2025-09-25T05:45:37.555609+00:00,9.265000,0.053960,
2025-09-25T05:45:37.560609+00:00,9.270000,0.051300,
2025-09-25T05:45:37.565609+00:00,9.275000,0.056620,
2025-09-25T05:45:37.570609+00:00,9.280000,0.053580,
2025-09-25T05:45:37.575609+00:00,9.285000,0.041420,
2025-09-25T05:45:37.580609+00:00,9.290000,0.031920,
2025-09-25T05:45:37.585609+00:00,9.295000,0.029260,
2025-09-25T05:45:37.590609+00:00,9.300000,0.034960,
2025-09-25T05:45:37.595609+00:00,9.305000,0.045600,
2025-09-25T05:45:37.600609+00:00,9.310000,0.050160,
2025-09-25T05:45:37.605609+00:00,9.315000,0.039900,
2025-09-25T05:45:37.610609+00:00,9.320000,0.020900,
2025-09-25T05:45:37.615609+00:00,9.325000,0.011780,
2025-09-25T05:45:37.620609+00:00,9.330000,0.010640,
2025-09-25T05:45:37.625609+00:00,9.335000,0.009880,
2025-09-25T05:45:37.630609+00:00,9.340000,0.004940,
2025-09-25T05:45:37.635609+00:00,9.345000,0.000000,
2025-09-25T05:45:37.640609+00:00,9.350000,-0.002280,
2025-09-25T05:45:37.645609+00:00,9.355000,-0.003040,
2025-09-25T05:45:37.650609+00:00,9.360000,-0.008360,
2025-09-25T05:45:37.655609+00:00,9.365000,-0.013680,
2025-09-25T05:45:37.660609+00:00,9.370000,-0.015580,
2025-09-25T05:45:37.665609+00:00,9.375000,-0.020140,
2025-09-25T05:45:37.670609+00:00,9.380000,-0.026220,
2025-09-25T05:45:37.675609+00:00,9.385000,-0.030400,
2025-09-25T05:45:37.680609+00:00,9.390000,-0.032680,
2025-09-25T05:45:37.685609+00:00,9.395000,-0.035720,
2025-09-25T05:45:37.690609+00:00,9.400000,-0.040280,
2025-09-25T05:45:37.695609+00:00,9.405000,-0.042180,
2025-09-25T05:45:37.700609+00:00,9.410000,-0.041800,
2025-09-25T05:45:37.705609+00:00,9.415000,-0.035340,
2025-09-25T05:45:37.710609+00:00,9.420000,-0.026220,
2025-09-25T05:45:37.715609+00:00,9.425000,-0.020520,
2025-09-25T05:45:37.720609+00:00,9.430000,-0.016720,
2025-09-25T05:45:37.725609+00:00,9.435000,-0.011780,
2025-09-25T05:45:37.730609+00:00,9.440000,-0.006460,
2025-09-25T05:45:37.735609+00:00,9.445000,-0.002280,
2025-09-25T05:45:37.740609+00:00,9.450000,-0.001140,
2025-09-25T05:45:37.745609+00:00,9.455000,-0.001140,
2025-09-25T05:45:37.750609+00:00,9.460000,-0.000760,
2025-09-25T05:45:37.755609+00:00,9.465000,-0.002660,
2025-09-25T05:45:37.760609+00:00,9.470000,-0.009880,
2025-09-25T05:45:37.765609+00:00,9.475000,-0.014440,
2025-09-25T05:45:37.770609+00:00,9.480000,-0.006840,
2025-09-25T05:45:37.775609+00:00,9.485000,0.008360,
2025-09-25T05:45:37.780609+00:00,9.490000,0.017100,
2025-09-25T05:45:37.785609+00:00,9.495000,0.011020,
2025-09-25T05:45:37.790609+00:00,9.500000,0.002280,
2025-09-25T05:45:37.795609+00:00,9.505000,0.001140,
2025-09-25T05:45:37.800609+00:00,9.510000,0.004940,
2025-09-25T05:45:37.805609+00:00,9.515000,0.008360,
2025-09-25T05:45:37.810609+00:00,9.520000,0.007220,
2025-09-25T05:45:37.815609+00:00,9.525000,0.004560,
2025-09-25T05:45:37.820609+00:00,9.530000,0.008740,
2025-09-25T05:45:37.825609+00:00,9.535000,0.014820,
2025-09-25T05:45:37.830609+00:00,9.540000,0.015960,
2025-09-25T05:45:37.835609+00:00,9.545000,0.005320,
2025-09-25T05:45:37.840609+00:00,9.550000,-0.009500,
2025-09-25T05:45:37.845609+00:00,9.555000,-0.015960,
2025-09-25T05:45:37.850609+00:00,9.560000,-0.009500,
2025-09-25T05:45:37.855609+00:00,9.565000,0.006840,
2025-09-25T05:45:37.860609+00:00,9.570000,0.020520,
2025-09-25T05:45:37.865609+00:00,9.575000,0.021280,
2025-09-25T05:45:37.870609+00:00,9.580000,0.014820,
2025-09-25T05:45:37.875609+00:00,9.585000,0.011020,
2025-09-25T05:45:37.880609+00:00,9.590000,0.015580,
2025-09-25T05:45:37.885609+00:00,9.595000,0.016720,
2025-09-25T05:45:37.890609+00:00,9.600000,0.011780,
2025-09-25T05:45:37.895609+00:00,9.605000,0.006460,
2025-09-25T05:45:37.900609+00:00,9.610000,0.007980,
2025-09-25T05:45:37.905609+00:00,9.615000,0.016340,
2025-09-25T05:45:37.910609+00:00,9.620000,0.020900,
2025-09-25T05:45:37.915609+00:00,9.625000,0.012920,
2025-09-25T05:45:37.920609+00:00,9.630000,-0.006840,
2025-09-25T05:45:37.925609+00:00,9.635000,-0.026600,
2025-09-25T05:45:37.930609+00:00,9.640000,-0.039140,
2025-09-25T05:45:37.935609+00:00,9.645000,-0.041040,
2025-09-25T05:45:37.940609+00:00,9.650000,-0.036860,
2025-09-25T05:45:37.945609+00:00,9.655000,-0.036480,
2025-09-25T05:45:37.950609+00:00,9.660000,-0.041800,
2025-09-25T05:45:37.955609+00:00,9.665000,-0.046360,
2025-09-25T05:45:37.960609+00:00,9.670000,-0.044460,
2025-09-25T05:45:37.965609+00:00,9.675000,-0.038760,
2025-09-25T05:45:37.970609+00:00,9.680000,-0.033060,
2025-09-25T05:45:37.975609+00:00,9.685000,-0.034580,
2025-09-25T05:45:37.980609+00:00,9.690000,-0.038380,
2025-09-25T05:45:37.985609+00:00,9.695000,-0.037620,
2025-09-25T05:45:37.990609+00:00,9.700000,-0.033820,
2025-09-25T05:45:37.995609+00:00,9.705000,-0.031160,
2025-09-25T05:45:38.000609+00:00,9.710000,-0.030780,
2025-09-25T05:45:38.005609+00:00,9.715000,-0.029640,
2025-09-25T05:45:38.010609+00:00,9.720000,-0.029640,
2025-09-25T05:45:38.015609+00:00,9.725000,-0.035340,
2025-09-25T05:45:38.020609+00:00,9.730000,-0.043320,
2025-09-25T05:45:38.025609+00:00,9.735000,-0.049020,
2025-09-25T05:45:38.030609+00:00,9.740000,-0.051300,
2025-09-25T05:45:38.035609+00:00,9.745000,-0.050920,
2025-09-25T05:45:38.040609+00:00,9.750000,-0.050540,
2025-09-25T05:45:38.045609+00:00,9.755000,-0.052060,
2025-09-25T05:45:38.050609+00:00,9.760000,-0.052440,
2025-09-25T05:45:38.055609+00:00,9.765000,-0.050920,
2025-09-25T05:45:38.060609+00:00,9.770000,-0.048640,
2025-09-25T05:45:38.065609+00:00,9.775000,-0.044080,
2025-09-25T05:45:38.070609+00:00,9.780000,-0.041420,
2025-09-25T05:45:38.075609+00:00,9.785000,-0.039520,
2025-09-25T05:45:38.080609+00:00,9.790000,-0.033820,
2025-09-25T05:45:38.085609+00:00,9.795000,-0.024700,
2025-09-25T05:45:38.090609+00:00,9.800000,-0.017100,
2025-09-25T05:45:38.095609+00:00,9.805000,-0.019000,
2025-09-25T05:45:38.100609+00:00,9.810000,-0.021280,
2025-09-25T05:45:38.105609+00:00,9.815000,-0.018240,
2025-09-25T05:45:38.110609+00:00,9.820000,-0.012160,
2025-09-25T05:45:38.115609+00:00,9.825000,-0.011400,
2025-09-25T05:45:38.120609+00:00,9.830000,-0.015580,
2025-09-25T05:45:38.125609+00:00,9.835000,-0.020520,
2025-09-25T05:45:38.130609+00:00,9.840000,-0.022040,
2025-09-25T05:45:38.135609+00:00,9.845000,-0.025080,
2025-09-25T05:45:38.140609+00:00,9.850000,-0.028120,
2025-09-25T05:45:38.145609+00:00,9.855000,-0.029640,
2025-09-25T05:45:38.150609+00:00,9.860000,-0.027360,
2025-09-25T05:45:38.155609+00:00,9.865000,-0.024700,
2025-09-25T05:45:38.160609+00:00,9.870000,-0.027740,
2025-09-25T05:45:38.165609+00:00,9.875000,-0.028120,
2025-09-25T05:45:38.170609+00:00,9.880000,-0.024700,
2025-09-25T05:45:38.175609+00:00,9.885000,-0.020520,
2025-09-25T05:45:38.180609+00:00,9.890000,-0.026220,
2025-09-25T05:45:38.185609+00:00,9.895000,-0.040660,
2025-09-25T05:45:38.190609+00:00,9.900000,-0.051300,
2025-09-25T05:45:38.195609+00:00,9.905000,-0.053960,
2025-09-25T05:45:38.200609+00:00,9.910000,-0.052060,
2025-09-25T05:45:38.205609+00:00,9.915000,-0.049780,
2025-09-25T05:45:38.210609+00:00,9.920000,-0.044080,
2025-09-25T05:45:38.215609+00:00,9.925000,-0.036860,
2025-09-25T05:45:38.220609+00:00,9.930000,-0.033440,
2025-09-25T05:45:38.225609+00:00,9.935000,-0.036480,
2025-09-25T05:45:38.230609+00:00,9.940000,-0.042940,
2025-09-25T05:45:38.235609+00:00,9.945000,-0.045600,
2025-09-25T05:45:38.240609+00:00,9.950000,-0.045600,
2025-09-25T05:45:38.245609+00:00,9.955000,-0.044080,
2025-09-25T05:45:38.250609+00:00,9.960000,-0.039900,
2025-09-25T05:45:38.255609+00:00,9.965000,-0.033440,
2025-09-25T05:45:38.260609+00:00,9.970000,-0.028500,
2025-09-25T05:45:38.265609+00:00,9.975000,-0.031920,
2025-09-25T05:45:38.270609+00:00,9.980000,-0.038760,
2025-09-25T05:45:38.275609+00:00,9.985000,-0.038760,
2025-09-25T05:45:38.280609+00:00,9.990000,-0.035340,
2025-09-25T05:45:38.285609+00:00,9.995000,-0.030400,
2025-09-25T05:45:38.290609+00:00,10.000000,-0.027360,
2025-09-25T05:45:38.295609+00:00,10.005000,-0.022420,
2025-09-25T05:45:38.300609+00:00,10.010000,-0.018620,
2025-09-25T05:45:38.305609+00:00,10.015000,-0.019760,
2025-09-25T05:45:38.310609+00:00,10.020000,-0.027360,
2025-09-25T05:45:38.315609+00:00,10.025000,-0.031540,
2025-09-25T05:45:38.320609+00:00,10.030000,-0.028880,
2025-09-25T05:45:38.325609+00:00,10.035000,-0.022420,
2025-09-25T05:45:38.330609+00:00,10.040000,-0.022800,
2025-09-25T05:45:38.335609+00:00,10.045000,-0.026220,
2025-09-25T05:45:38.340609+00:00,10.050000,-0.028880,
2025-09-25T05:45:38.345609+00:00,10.055000,-0.029260,
2025-09-25T05:45:38.350609+00:00,10.060000,-0.026980,
2025-09-25T05:45:38.355609+00:00,10.065000,-0.025080,
2025-09-25T05:45:38.360609+00:00,10.070000,-0.023560,
2025-09-25T05:45:38.365609+00:00,10.075000,-0.023940,
2025-09-25T05:45:38.370609+00:00,10.080000,-0.025840,
2025-09-25T05:45:38.375609+00:00,10.085000,-0.028120,
2025-09-25T05:45:38.380609+00:00,10.090000,-0.025840,
2025-09-25T05:45:38.385609+00:00,10.095000,-0.023180,
2025-09-25T05:45:38.390609+00:00,10.100000,-0.023560,
2025-09-25T05:45:38.395609+00:00,10.105000,-0.025460,
2025-09-25T05:45:38.400609+00:00,10.110000,-0.025080,
2025-09-25T05:45:38.405609+00:00,10.115000,-0.024700,
2025-09-25T05:45:38.410609+00:00,10.120000,-0.026980,
2025-09-25T05:45:38.415609+00:00,10.125000,-0.031160,
2025-09-25T05:45:38.420609+00:00,10.130000,-0.034200,
2025-09-25T05:45:38.425609+00:00,10.135000,-0.032300,
2025-09-25T05:45:38.430609+00:00,10.140000,-0.032680,
2025-09-25T05:45:38.435609+00:00,10.145000,-0.038380,
2025-09-25T05:45:38.440609+00:00,10.150000,-0.047500,
2025-09-25T05:45:38.445609+00:00,10.155000,-0.050160,
2025-09-25T05:45:38.450609+00:00,10.160000,-0.045220,
2025-09-25T05:45:38.455609+00:00,10.165000,-0.037620,
2025-09-25T05:45:38.460609+00:00,10.170000,-0.035340,
2025-09-25T05:45:38.465609+00:00,10.175000,-0.034960,
2025-09-25T05:45:38.470609+00:00,10.180000,-0.034580,
2025-09-25T05:45:38.475609+00:00,10.185000,-0.031920,
2025-09-25T05:45:38.480609+00:00,10.190000,-0.033060,
2025-09-25T05:45:38.485609+00:00,10.195000,-0.038380,
2025-09-25T05:45:38.490609+00:00,10.200000,-0.041800,
2025-09-25T05:45:38.495609+00:00,10.205000,-0.041800,
2025-09-25T05:45:38.500609+00:00,10.210000,-0.041420,
2025-09-25T05:45:38.505609+00:00,10.215000,-0.042560,
2025-09-25T05:45:38.510609+00:00,10.220000,-0.044080,
2025-09-25T05:45:38.515609+00:00,10.225000,-0.041420,
2025-09-25T05:45:38.520609+00:00,10.230000,-0.036480,
2025-09-25T05:45:38.525609+00:00,10.235000,-0.036100,
2025-09-25T05:45:38.530609+00:00,10.240000,-0.038380,
2025-09-25T05:45:38.535609+00:00,10.245000,-0.038380,
2025-09-25T05:45:38.540609+00:00,10.250000,-0.032300,
2025-09-25T05:45:38.545609+00:00,10.255000,-0.024700,
2025-09-25T05:45:38.550609+00:00,10.260000,-0.025460,
2025-09-25T05:45:38.555609+00:00,10.265000,-0.036100,
2025-09-25T05:45:38.560609+00:00,10.270000,-0.050160,
2025-09-25T05:45:38.565609+00:00,10.275000,-0.058520,
2025-09-25T05:45:38.570609+00:00,10.280000,-0.057000,
2025-09-25T05:45:38.575609+00:00,10.285000,-0.047500,
2025-09-25T05:45:38.580609+00:00,10.290000,-0.040660,
2025-09-25T05:45:38.585609+00:00,10.295000,-0.041040,
2025-09-25T05:45:38.590609+00:00,10.300000,-0.050920,
2025-09-25T05:45:38.595609+00:00,10.305000,-0.061560,
2025-09-25T05:45:38.600609+00:00,10.310000,-0.064980,
2025-09-25T05:45:38.605609+00:00,10.315000,-0.061940,
2025-09-25T05:45:38.610609+00:00,10.320000,-0.060420,
2025-09-25T05:45:38.615609+00:00,10.325000,-0.057760,
2025-09-25T05:45:38.620609+00:00,10.330000,-0.052440,
2025-09-25T05:45:38.625609+00:00,10.335000,-0.046360,
2025-09-25T05:45:38.630609+00:00,10.340000,-0.041800,
2025-09-25T05:45:38.635609+00:00,10.345000,-0.038760,
2025-09-25T05:45:38.640609+00:00,10.350000,-0.033440,
2025-09-25T05:45:38.645609+00:00,10.355000,-0.026600,
2025-09-25T05:45:38.650609+00:00,10.360000,-0.019000,
2025-09-25T05:45:38.655609+00:00,10.365000,-0.014060,
2025-09-25T05:45:38.660609+00:00,10.370000,-0.015200,
2025-09-25T05:45:38.665609+00:00,10.375000,-0.023940,
2025-09-25T05:45:38.670609+00:00,10.380000,-0.031540,
2025-09-25T05:45:38.675609+00:00,10.385000,-0.032300,
2025-09-25T05:45:38.680609+00:00,10.390000,-0.027740,
2025-09-25T05:45:38.685609+00:00,10.395000,-0.026220,
2025-09-25T05:45:38.690609+00:00,10.400000,-0.026220,
2025-09-25T05:45:38.695609+00:00,10.405000,-0.024320,
2025-09-25T05:45:38.700609+00:00,10.410000,-0.018240,
2025-09-25T05:45:38.705609+00:00,10.415000,-0.015200,
2025-09-25T05:45:38.710609+00:00,10.420000,-0.019000,
2025-09-25T05:45:38.715609+00:00,10.425000,-0.023180,
2025-09-25T05:45:38.720609+00:00,10.430000,-0.021660,
2025-09-25T05:45:38.725609+00:00,10.435000,-0.018620,
2025-09-25T05:45:38.730609+00:00,10.440000,-0.017480,
2025-09-25T05:45:38.735609+00:00,10.445000,-0.020140,
2025-09-25T05:45:38.740609+00:00,10.450000,-0.022420,
2025-09-25T05:45:38.745609+00:00,10.455000,-0.024700,
2025-09-25T05:45:38.750609+00:00,10.460000,-0.026980,
2025-09-25T05:45:38.755609+00:00,10.465000,-0.028880,
2025-09-25T05:45:38.760609+00:00,10.470000,-0.026600,
2025-09-25T05:45:38.765609+00:00,10.475000,-0.022800,
2025-09-25T05:45:38.770609+00:00,10.480000,-0.023940,
2025-09-25T05:45:38.775609+00:00,10.485000,-0.026600,
2025-09-25T05:45:38.780609+00:00,10.490000,-0.025460,
2025-09-25T05:45:38.785609+00:00,10.495000,-0.017480,
2025-09-25T05:45:38.790609+00:00,10.500000,-0.014440,
2025-09-25T05:45:38.795609+00:00,10.505000,-0.016720,
2025-09-25T05:45:38.800609+00:00,10.510000,-0.020900,
2025-09-25T05:45:38.805609+00:00,10.515000,-0.018240,
2025-09-25T05:45:38.810609+00:00,10.520000,-0.011780,
2025-09-25T05:45:38.815609+00:00,10.525000,-0.007220,
2025-09-25T05:45:38.820609+00:00,10.530000,-0.010640,
2025-09-25T05:45:38.825609+00:00,10.535000,-0.014820,
2025-09-25T05:45:38.830609+00:00,10.540000,-0.015960,
2025-09-25T05:45:38.835609+00:00,10.545000,-0.013680,
2025-09-25T05:45:38.840609+00:00,10.550000,-0.013680,
2025-09-25T05:45:38.845609+00:00,10.555000,-0.016340,
2025-09-25T05:45:38.850609+00:00,10.560000,-0.015580,
2025-09-25T05:45:38.855609+00:00,10.565000,-0.014440,
2025-09-25T05:45:38.860609+00:00,10.570000,-0.014060,
2025-09-25T05:45:38.865609+00:00,10.575000,-0.019000,
2025-09-25T05:45:38.870609+00:00,10.580000,-0.022040,
2025-09-25T05:45:38.875609+00:00,10.585000,-0.017480,
2025-09-25T05:45:38.880609+00:00,10.590000,-0.007980,
2025-09-25T05:45:38.885609+00:00,10.595000,-0.004180,
2025-09-25T05:45:38.890609+00:00,10.600000,-0.010640,
2025-09-25T05:45:38.895609+00:00,10.605000,-0.022420,
2025-09-25T05:45:38.900609+00:00,10.610000,-0.028880,
2025-09-25T05:45:38.905609+00:00,10.615000,-0.029640,
2025-09-25T05:45:38.910609+00:00,10.620000,-0.027740,
2025-09-25T05:45:38.915609+00:00,10.625000,-0.029640,
2025-09-25T05:45:38.920609+00:00,10.630000,-0.028880,
2025-09-25T05:45:38.925609+00:00,10.635000,-0.029260,
2025-09-25T05:45:38.930609+00:00,10.640000,-0.029640,
2025-09-25T05:45:38.935609+00:00,10.645000,-0.030400,
2025-09-25T05:45:38.940609+00:00,10.650000,-0.030400,
2025-09-25T05:45:38.945609+00:00,10.655000,-0.033440,
2025-09-25T05:45:38.950609+00:00,10.660000,-0.033060,
2025-09-25T05:45:38.955609+00:00,10.665000,-0.026980,
2025-09-25T05:45:38.960609+00:00,10.670000,-0.020140,
2025-09-25T05:45:38.965609+00:00,10.675000,-0.022040,
2025-09-25T05:45:38.970609+00:00,10.680000,-0.029640,
2025-09-25T05:45:38.975609+00:00,10.685000,-0.034960,
2025-09-25T05:45:38.980609+00:00,10.690000,-0.031160,
2025-09-25T05:45:38.985609+00:00,10.695000,-0.025080,
2025-09-25T05:45:38.990609+00:00,10.700000,-0.024320,
2025-09-25T05:45:38.995609+00:00,10.705000,-0.027360,
2025-09-25T05:45:39.000609+00:00,10.710000,-0.026600,
2025-09-25T05:45:39.005609+00:00,10.715000,-0.026220,
2025-09-25T05:45:39.010609+00:00,10.720000,-0.030780,
2025-09-25T05:45:39.015609+00:00,10.725000,-0.042560,
2025-09-25T05:45:39.020609+00:00,10.730000,-0.050540,
2025-09-25T05:45:39.025609+00:00,10.735000,-0.047120,
2025-09-25T05:45:39.030609+00:00,10.740000,-0.036860,
2025-09-25T05:45:39.035609+00:00,10.745000,-0.025460,
2025-09-25T05:45:39.040609+00:00,10.750000,-0.020140,
2025-09-25T05:45:39.045609+00:00,10.755000,-0.022420,
2025-09-25T05:45:39.050609+00:00,10.760000,-0.023940,
2025-09-25T05:45:39.055609+00:00,10.765000,-0.020900,
2025-09-25T05:45:39.060609+00:00,10.770000,-0.021660,
2025-09-25T05:45:39.065609+00:00,10.775000,-0.028120,
2025-09-25T05:45:39.070609+00:00,10.780000,-0.035340,
2025-09-25T05:45:39.075609+00:00,10.785000,-0.040280,
2025-09-25T05:45:39.080609+00:00,10.790000,-0.040280,
2025-09-25T05:45:39.085609+00:00,10.795000,-0.038000,
2025-09-25T05:45:39.090609+00:00,10.800000,-0.035720,
2025-09-25T05:45:39.095609+00:00,10.805000,-0.036860,
2025-09-25T05:45:39.100609+00:00,10.810000,-0.039900,
2025-09-25T05:45:39.105609+00:00,10.815000,-0.039520,
2025-09-25T05:45:39.110609+00:00,10.820000,-0.034960,
2025-09-25T05:45:39.115609+00:00,10.825000,-0.028880,
2025-09-25T05:45:39.120609+00:00,10.830000,-0.025840,
2025-09-25T05:45:39.125609+00:00,10.835000,-0.028880,
2025-09-25T05:45:39.130609+00:00,10.840000,-0.032680,
2025-09-25T05:45:39.135609+00:00,10.845000,-0.030780,
2025-09-25T05:45:39.140609+00:00,10.850000,-0.023180,
2025-09-25T05:45:39.145609+00:00,10.855000,-0.016720,
2025-09-25T05:45:39.150609+00:00,10.860000,-0.014440,
2025-09-25T05:45:39.155609+00:00,10.865000,-0.017860,
2025-09-25T05:45:39.160609+00:00,10.870000,-0.024320,
2025-09-25T05:45:39.165609+00:00,10.875000,-0.027360,
2025-09-25T05:45:39.170609+00:00,10.880000,-0.029640,
2025-09-25T05:45:39.175609+00:00,10.885000,-0.032300,
2025-09-25T05:45:39.180609+00:00,10.890000,-0.036100,
2025-09-25T05:45:39.185609+00:00,10.895000,-0.037620,
2025-09-25T05:45:39.190609+00:00,10.900000,-0.033060,
2025-09-25T05:45:39.195609+00:00,10.905000,-0.024700,
2025-09-25T05:45:39.200609+00:00,10.910000,-0.020520,
2025-09-25T05:45:39.205609+00:00,10.915000,-0.022800,
2025-09-25T05:45:39.210609+00:00,10.920000,-0.027360,
2025-09-25T05:45:39.215609+00:00,10.925000,-0.029260,
2025-09-25T05:45:39.220609+00:00,10.930000,-0.031540,
2025-09-25T05:45:39.225609+00:00,10.935000,-0.035720,
2025-09-25T05:45:39.230609+00:00,10.940000,-0.037240,
2025-09-25T05:45:39.235609+00:00,10.945000,-0.036100,
2025-09-25T05:45:39.240609+00:00,10.950000,-0.034200,
2025-09-25T05:45:39.245609+00:00,10.955000,-0.036480,
2025-09-25T05:45:39.250609+00:00,10.960000,-0.039140,
2025-09-25T05:45:39.255609+00:00,10.965000,-0.037620,
2025-09-25T05:45:39.260609+00:00,10.970000,-0.033060,
2025-09-25T05:45:39.265609+00:00,10.975000,-0.031160,
2025-09-25T05:45:39.270609+00:00,10.980000,-0.035340,
2025-09-25T05:45:39.275609+00:00,10.985000,-0.039900,
2025-09-25T05:45:39.280609+00:00,10.990000,-0.036860,
2025-09-25T05:45:39.285609+00:00,10.995000,-0.025460,
2025-09-25T05:45:39.290609+00:00,11.000000,-0.019380,
2025-09-25T05:45:39.295609+00:00,11.005000,-0.023560,
2025-09-25T05:45:39.300609+00:00,11.010000,-0.031920,
2025-09-25T05:45:39.305609+00:00,11.015000,-0.035340,
2025-09-25T05:45:39.310609+00:00,11.020000,-0.031540,
2025-09-25T05:45:39.315609+00:00,11.025000,-0.026220,
2025-09-25T05:45:39.320609+00:00,11.030000,-0.022800,
2025-09-25T05:45:39.325609+00:00,11.035000,-0.021280,
2025-09-25T05:45:39.330609+00:00,11.040000,-0.022040,
2025-09-25T05:45:39.335609+00:00,11.045000,-0.022040,
2025-09-25T05:45:39.340609+00:00,11.050000,-0.020520,
2025-09-25T05:45:39.345609+00:00,11.055000,-0.017480,
2025-09-25T05:45:39.350609+00:00,11.060000,-0.016340,
2025-09-25T05:45:39.355609+00:00,11.065000,-0.017100,
2025-09-25T05:45:39.360609+00:00,11.070000,-0.017860,
2025-09-25T05:45:39.365609+00:00,11.075000,-0.019760,
2025-09-25T05:45:39.370609+00:00,11.080000,-0.025460,
2025-09-25T05:45:39.375609+00:00,11.085000,-0.028880,
2025-09-25T05:45:39.380609+00:00,11.090000,-0.030020,
2025-09-25T05:45:39.385609+00:00,11.095000,-0.028880,
2025-09-25T05:45:39.390609+00:00,11.100000,-0.026980,
2025-09-25T05:45:39.395609+00:00,11.105000,-0.027740,
2025-09-25T05:45:39.400609+00:00,11.110000,-0.028120,
2025-09-25T05:45:39.405609+00:00,11.115000,-0.029640,
2025-09-25T05:45:39.410609+00:00,11.120000,-0.032300,
2025-09-25T05:45:39.415609+00:00,11.125000,-0.036480,
2025-09-25T05:45:39.420609+00:00,11.130000,-0.036100,
2025-09-25T05:45:39.425609+00:00,11.135000,-0.033060,
2025-09-25T05:45:39.430609+00:00,11.140000,-0.030400,
2025-09-25T05:45:39.435609+00:00,11.145000,-0.031540,
2025-09-25T05:45:39.440609+00:00,11.150000,-0.033440,
2025-09-25T05:45:39.445609+00:00,11.155000,-0.031540,
2025-09-25T05:45:39.450609+00:00,11.160000,-0.024700,
2025-09-25T05:45:39.455609+00:00,11.165000,-0.018240,
2025-09-25T05:45:39.460609+00:00,11.170000,-0.017860,
2025-09-25T05:45:39.465609+00:00,11.175000,-0.024320,
2025-09-25T05:45:39.470609+00:00,11.180000,-0.031920,
2025-09-25T05:45:39.475609+00:00,11.185000,-0.038380,
2025-09-25T05:45:39.480609+00:00,11.190000,-0.037620,
2025-09-25T05:45:39.485609+00:00,11.195000,-0.033060,
2025-09-25T05:45:39.490609+00:00,11.200000,-0.031160,
2025-09-25T05:45:39.495609+00:00,11.205000,-0.036480,
2025-09-25T05:45:39.500609+00:00,11.210000,-0.040660,
2025-09-25T05:45:39.505609+00:00,11.215000,-0.039140,
2025-09-25T05:45:39.510609+00:00,11.220000,-0.037240,
2025-09-25T05:45:39.515609+00:00,11.225000,-0.037240,
2025-09-25T05:45:39.520609+00:00,11.230000,-0.038380,
2025-09-25T05:45:39.525609+00:00,11.235000,-0.030780,
2025-09-25T05:45:39.530609+00:00,11.240000,-0.019760,
2025-09-25T05:45:39.535609+00:00,11.245000,-0.015960,
2025-09-25T05:45:39.540609+00:00,11.250000,-0.025840,
2025-09-25T05:45:39.545609+00:00,11.255000,-0.041420,
2025-09-25T05:45:39.550609+00:00,11.260000,-0.046360,
2025-09-25T05:45:39.555609+00:00,11.265000,-0.040280,
2025-09-25T05:45:39.560609+00:00,11.270000,-0.028120,
2025-09-25T05:45:39.565609+00:00,11.275000,-0.018240,
2025-09-25T05:45:39.570609+00:00,11.280000,-0.010260,
2025-09-25T05:45:39.575609+00:00,11.285000,-0.005320,
2025-09-25T05:45:39.580609+00:00,11.290000,-0.006080,
2025-09-25T05:45:39.585609+00:00,11.295000,-0.012540,
2025-09-25T05:45:39.590609+00:00,11.300000,-0.023180,
2025-09-25T05:45:39.595609+00:00,11.305000,-0.032300,
2025-09-25T05:45:39.600609+00:00,11.310000,-0.033060,
2025-09-25T05:45:39.605609+00:00,11.315000,-0.025460,
2025-09-25T05:45:39.610609+00:00,11.320000,-0.015200,
2025-09-25T05:45:39.615609+00:00,11.325000,-0.013300,
2025-09-25T05:45:39.620609+00:00,11.330000,-0.018620,
2025-09-25T05:45:39.625609+00:00,11.335000,-0.019760,
2025-09-25T05:45:39.630609+00:00,11.340000,-0.014060,
2025-09-25T05:45:39.635609+00:00,11.345000,-0.007220,
2025-09-25T05:45:39.640609+00:00,11.350000,-0.004180,
2025-09-25T05:45:39.645609+00:00,11.355000,-0.003800,
2025-09-25T05:45:39.650609+00:00,11.360000,-0.002660,
