timestamp_utc,t_rel_sec,ecg_mV,event
2025-11-12T17:19:46.679755+00:00,0.000000,0.000000,
2025-11-12T17:19:46.684755+00:00,0.005000,-0.000380,
2025-11-12T17:19:46.689755+00:00,0.010000,-0.000380,
2025-11-12T17:19:46.694755+00:00,0.015000,-0.001520,
2025-11-12T17:19:46.699755+00:00,0.020000,-0.005320,
2025-11-12T17:19:46.704755+00:00,0.025000,0.009880,
2025-11-12T17:19:46.709755+00:00,0.030000,0.001520,
2025-11-12T17:19:46.714755+00:00,0.035000,-0.079040,
2025-11-12T17:19:46.719755+00:00,0.040000,0.041800,
2025-11-12T17:19:46.724755+00:00,0.045000,0.267520,
2025-11-12T17:19:46.729755+00:00,0.050000,-0.130340,
2025-11-12T17:19:46.734755+00:00,0.055000,-0.690080,
2025-11-12T17:19:46.739755+00:00,0.060000,0.137560,
2025-11-12T17:19:46.744755+00:00,0.065000,2.371960,
2025-11-12T17:19:46.749755+00:00,0.070000,3.825460,
2025-11-12T17:19:46.754755+00:00,0.075000,2.712060,
2025-11-12T17:19:46.759755+00:00,0.080000,0.044080,
2025-11-12T17:19:46.764755+00:00,0.085000,-1.648820,
2025-11-12T17:19:46.769755+00:00,0.090000,-1.453120,
2025-11-12T17:19:46.774755+00:00,0.095000,-0.750500,
2025-11-12T17:19:46.779755+00:00,0.100000,-0.681720,
2025-11-12T17:19:46.784755+00:00,0.105000,-0.786220,
2025-11-12T17:19:46.789755+00:00,0.110000,-0.670700,
2025-11-12T17:19:46.794755+00:00,0.115000,-0.552140,
2025-11-12T17:19:46.799755+00:00,0.120000,-0.474620,
2025-11-12T17:19:46.804755+00:00,0.125000,-0.396720,
2025-11-12T17:19:46.809755+00:00,0.130000,-0.336680,
2025-11-12T17:19:46.814755+00:00,0.135000,-0.288800,
2025-11-12T17:19:46.819755+00:00,0.140000,-0.248140,
2025-11-12T17:19:46.824755+00:00,0.145000,-0.216980,
2025-11-12T17:19:46.829755+00:00,0.150000,-0.193040,
2025-11-12T17:19:46.834755+00:00,0.155000,-0.172520,
2025-11-12T17:19:46.839755+00:00,0.160000,-0.152380,
2025-11-12T17:19:46.844755+00:00,0.165000,-0.134900,
2025-11-12T17:19:46.849755+00:00,0.170000,-0.119320,
2025-11-12T17:19:46.854755+00:00,0.175000,-0.107160,
2025-11-12T17:19:46.859755+00:00,0.180000,-0.098040,
2025-11-12T17:19:46.864755+00:00,0.185000,-0.088160,
2025-11-12T17:19:46.869755+00:00,0.190000,-0.079040,
2025-11-12T17:19:46.874755+00:00,0.195000,-0.071060,
2025-11-12T17:19:46.879755+00:00,0.200000,-0.067640,
2025-11-12T17:19:46.884755+00:00,0.205000,-0.063840,
2025-11-12T17:19:46.889755+00:00,0.210000,-0.058900,
2025-11-12T17:19:46.894755+00:00,0.215000,-0.053580,
2025-11-12T17:19:46.899755+00:00,0.220000,-0.049400,
2025-11-12T17:19:46.904755+00:00,0.225000,-0.046360,
2025-11-12T17:19:46.909755+00:00,0.230000,-0.044840,
2025-11-12T17:19:46.914755+00:00,0.235000,-0.043320,
2025-11-12T17:19:46.919755+00:00,0.240000,-0.041800,
2025-11-12T17:19:46.924755+00:00,0.245000,-0.038380,
2025-11-12T17:19:46.929755+00:00,0.250000,-0.034200,
2025-11-12T17:19:46.934755+00:00,0.255000,-0.031160,
2025-11-12T17:19:46.939755+00:00,0.260000,-0.030400,
2025-11-12T17:19:46.944755+00:00,0.265000,-0.028500,
2025-11-12T17:19:46.949755+00:00,0.270000,-0.026600,
2025-11-12T17:19:46.954755+00:00,0.275000,-0.025840,
2025-11-12T17:19:46.959755+00:00,0.280000,-0.026220,
2025-11-12T17:19:46.964755+00:00,0.285000,-0.028500,
2025-11-12T17:19:46.969755+00:00,0.290000,-0.028500,
2025-11-12T17:19:46.974755+00:00,0.295000,-0.025840,
2025-11-12T17:19:46.979755+00:00,0.300000,-0.020520,
2025-11-12T17:19:46.984755+00:00,0.305000,-0.016340,
2025-11-12T17:19:46.989755+00:00,0.310000,-0.012920,
2025-11-12T17:19:46.994755+00:00,0.315000,-0.011400,
2025-11-12T17:19:46.999755+00:00,0.320000,-0.008740,
2025-11-12T17:19:47.004755+00:00,0.325000,-0.004560,
2025-11-12T17:19:47.009755+00:00,0.330000,0.000000,
2025-11-12T17:19:47.014755+00:00,0.335000,-0.002280,
2025-11-12T17:19:47.019755+00:00,0.340000,-0.013300,
2025-11-12T17:19:47.024755+00:00,0.345000,-0.026980,
2025-11-12T17:19:47.029755+00:00,0.350000,-0.034200,
2025-11-12T17:19:47.034755+00:00,0.355000,-0.037620,
2025-11-12T17:19:47.039755+00:00,0.360000,-0.033440,
2025-11-12T17:19:47.044755+00:00,0.365000,-0.027740,
2025-11-12T17:19:47.049755+00:00,0.370000,-0.021280,
2025-11-12T17:19:47.054755+00:00,0.375000,-0.018620,
2025-11-12T17:19:47.059755+00:00,0.380000,-0.019380,
2025-11-12T17:19:47.064755+00:00,0.385000,-0.023180,
2025-11-12T17:19:47.069755+00:00,0.390000,-0.025460,
2025-11-12T17:19:47.074755+00:00,0.395000,-0.024700,
2025-11-12T17:19:47.079755+00:00,0.400000,-0.020900,
2025-11-12T17:19:47.084755+00:00,0.405000,-0.019000,
2025-11-12T17:19:47.089755+00:00,0.410000,-0.018240,
2025-11-12T17:19:47.094755+00:00,0.415000,-0.015960,
2025-11-12T17:19:47.099755+00:00,0.420000,-0.015200,
2025-11-12T17:19:47.104755+00:00,0.425000,-0.016720,
2025-11-12T17:19:47.109755+00:00,0.430000,-0.018240,
2025-11-12T17:19:47.114755+00:00,0.435000,-0.017480,
2025-11-12T17:19:47.119755+00:00,0.440000,-0.021660,
2025-11-12T17:19:47.124755+00:00,0.445000,-0.023560,
2025-11-12T17:19:47.129755+00:00,0.450000,-0.008740,
2025-11-12T17:19:47.134755+00:00,0.455000,0.062700,
2025-11-12T17:19:47.139755+00:00,0.460000,0.235600,
2025-11-12T17:19:47.144755+00:00,0.465000,0.552520,
2025-11-12T17:19:47.149755+00:00,0.470000,0.930620,
2025-11-12T17:19:47.154755+00:00,0.475000,1.114160,
2025-11-12T17:19:47.159755+00:00,0.480000,0.850820,
2025-11-12T17:19:47.164755+00:00,0.485000,0.195320,
2025-11-12T17:19:47.169755+00:00,0.490000,-0.479560,
2025-11-12T17:19:47.174755+00:00,0.495000,-0.809020,
2025-11-12T17:19:47.179755+00:00,0.500000,-0.763800,
2025-11-12T17:19:47.184755+00:00,0.505000,-0.568480,
2025-11-12T17:19:47.189755+00:00,0.510000,-0.421040,
2025-11-12T17:19:47.194755+00:00,0.515000,-0.342760,
2025-11-12T17:19:47.199755+00:00,0.520000,-0.285760,
2025-11-12T17:19:47.204755+00:00,0.525000,-0.228760,
2025-11-12T17:19:47.209755+00:00,0.530000,-0.177840,
2025-11-12T17:19:47.214755+00:00,0.535000,-0.135660,
2025-11-12T17:19:47.219755+00:00,0.540000,-0.105640,
2025-11-12T17:19:47.224755+00:00,0.545000,-0.083220,
2025-11-12T17:19:47.229755+00:00,0.550000,-0.066120,
2025-11-12T17:19:47.234755+00:00,0.555000,-0.051300,
2025-11-12T17:19:47.239755+00:00,0.560000,-0.037240,
2025-11-12T17:19:47.244755+00:00,0.565000,-0.026600,
2025-11-12T17:19:47.249755+00:00,0.570000,-0.017860,
2025-11-12T17:19:47.254755+00:00,0.575000,-0.013300,
2025-11-12T17:19:47.259755+00:00,0.580000,-0.009880,
2025-11-12T17:19:47.264755+00:00,0.585000,-0.007980,
2025-11-12T17:19:47.269755+00:00,0.590000,-0.006080,
2025-11-12T17:19:47.274755+00:00,0.595000,-0.005320,
2025-11-12T17:19:47.279755+00:00,0.600000,-0.003420,
2025-11-12T17:19:47.284755+00:00,0.605000,-0.002280,
2025-11-12T17:19:47.289755+00:00,0.610000,0.001900,
2025-11-12T17:19:47.294755+00:00,0.615000,0.005700,
2025-11-12T17:19:47.299755+00:00,0.620000,0.006460,
2025-11-12T17:19:47.304755+00:00,0.625000,0.005700,
2025-11-12T17:19:47.309755+00:00,0.630000,0.005320,
2025-11-12T17:19:47.314755+00:00,0.635000,0.006460,
2025-11-12T17:19:47.319755+00:00,0.640000,0.008740,
2025-11-12T17:19:47.324755+00:00,0.645000,0.011020,
2025-11-12T17:19:47.329755+00:00,0.650000,0.014060,
2025-11-12T17:19:47.334755+00:00,0.655000,0.017860,
2025-11-12T17:19:47.339755+00:00,0.660000,0.023940,
2025-11-12T17:19:47.344755+00:00,0.665000,0.028880,
2025-11-12T17:19:47.349755+00:00,0.670000,0.033440,
2025-11-12T17:19:47.354755+00:00,0.675000,0.038760,
2025-11-12T17:19:47.359755+00:00,0.680000,0.043320,
2025-11-12T17:19:47.364755+00:00,0.685000,0.047500,
2025-11-12T17:19:47.369755+00:00,0.690000,0.049020,
2025-11-12T17:19:47.374755+00:00,0.695000,0.048260,
2025-11-12T17:19:47.379755+00:00,0.700000,0.043700,
2025-11-12T17:19:47.384755+00:00,0.705000,0.039900,
2025-11-12T17:19:47.389755+00:00,0.710000,0.031160,
2025-11-12T17:19:47.394755+00:00,0.715000,0.022800,
2025-11-12T17:19:47.399755+00:00,0.720000,0.010640,
2025-11-12T17:19:47.404755+00:00,0.725000,-0.006080,
2025-11-12T17:19:47.409755+00:00,0.730000,-0.026220,
2025-11-12T17:19:47.414755+00:00,0.735000,-0.048260,
2025-11-12T17:19:47.419755+00:00,0.740000,-0.075240,
2025-11-12T17:19:47.424755+00:00,0.745000,-0.101460,
2025-11-12T17:19:47.429755+00:00,0.750000,-0.126540,
2025-11-12T17:19:47.434755+00:00,0.755000,-0.144400,
2025-11-12T17:19:47.439755+00:00,0.760000,-0.154660,
2025-11-12T17:19:47.444755+00:00,0.765000,-0.153900,
2025-11-12T17:19:47.449755+00:00,0.770000,-0.148960,
2025-11-12T17:19:47.454755+00:00,0.775000,-0.140980,
2025-11-12T17:19:47.459755+00:00,0.780000,-0.130340,
2025-11-12T17:19:47.464755+00:00,0.785000,-0.116280,
2025-11-12T17:19:47.469755+00:00,0.790000,-0.101840,
2025-11-12T17:19:47.474755+00:00,0.795000,-0.089680,
2025-11-12T17:19:47.479755+00:00,0.800000,-0.080180,
2025-11-12T17:19:47.484755+00:00,0.805000,-0.067260,
2025-11-12T17:19:47.489755+00:00,0.810000,-0.055480,
2025-11-12T17:19:47.494755+00:00,0.815000,-0.046740,
2025-11-12T17:19:47.499755+00:00,0.820000,-0.041420,
2025-11-12T17:19:47.504755+00:00,0.825000,-0.037240,
2025-11-12T17:19:47.509755+00:00,0.830000,-0.032300,
2025-11-12T17:19:47.514755+00:00,0.835000,-0.028120,
2025-11-12T17:19:47.519755+00:00,0.840000,-0.025840,
2025-11-12T17:19:47.524755+00:00,0.845000,-0.024320,
2025-11-12T17:19:47.529755+00:00,0.850000,-0.025460,
2025-11-12T17:19:47.534755+00:00,0.855000,-0.023560,
2025-11-12T17:19:47.539755+00:00,0.860000,-0.019760,
2025-11-12T17:19:47.544755+00:00,0.865000,-0.017480,
2025-11-12T17:19:47.549755+00:00,0.870000,-0.017480,
2025-11-12T17:19:47.554755+00:00,0.875000,-0.018240,
2025-11-12T17:19:47.559755+00:00,0.880000,-0.018240,
2025-11-12T17:19:47.564755+00:00,0.885000,-0.017480,
2025-11-12T17:19:47.569755+00:00,0.890000,-0.017860,
2025-11-12T17:19:47.574755+00:00,0.895000,-0.019000,
2025-11-12T17:19:47.579755+00:00,0.900000,-0.022040,
2025-11-12T17:19:47.584755+00:00,0.905000,-0.025080,
2025-11-12T17:19:47.589755+00:00,0.910000,-0.026600,
2025-11-12T17:19:47.594755+00:00,0.915000,-0.026220,
2025-11-12T17:19:47.599755+00:00,0.920000,-0.025080,
2025-11-12T17:19:47.604755+00:00,0.925000,-0.023940,
2025-11-12T17:19:47.609755+00:00,0.930000,-0.024320,
2025-11-12T17:19:47.614755+00:00,0.935000,-0.023940,
2025-11-12T17:19:47.619755+00:00,0.940000,-0.022420,
2025-11-12T17:19:47.624755+00:00,0.945000,-0.023940,
2025-11-12T17:19:47.629755+00:00,0.950000,-0.028120,
2025-11-12T17:19:47.634755+00:00,0.955000,-0.030400,
2025-11-12T17:19:47.639755+00:00,0.960000,-0.028880,
2025-11-12T17:19:47.644755+00:00,0.965000,-0.025460,
2025-11-12T17:19:47.649755+00:00,0.970000,-0.026220,
2025-11-12T17:19:47.654755+00:00,0.975000,-0.030780,
2025-11-12T17:19:47.659755+00:00,0.980000,-0.029260,
2025-11-12T17:19:47.664755+00:00,0.985000,-0.024320,
2025-11-12T17:19:47.669755+00:00,0.990000,-0.020520,
2025-11-12T17:19:47.674755+00:00,0.995000,-0.022420,
2025-11-12T17:19:47.679755+00:00,1.000000,-0.026600,
2025-11-12T17:19:47.684755+00:00,1.005000,-0.026220,
2025-11-12T17:19:47.689755+00:00,1.010000,-0.023940,
2025-11-12T17:19:47.694755+00:00,1.015000,-0.024320,
2025-11-12T17:19:47.699755+00:00,1.020000,-0.025840,
2025-11-12T17:19:47.704755+00:00,1.025000,-0.026220,
2025-11-12T17:19:47.709755+00:00,1.030000,-0.024700,
2025-11-12T17:19:47.714755+00:00,1.035000,-0.024320,
2025-11-12T17:19:47.719755+00:00,1.040000,-0.024320,
2025-11-12T17:19:47.724755+00:00,1.045000,-0.026220,
2025-11-12T17:19:47.729755+00:00,1.050000,-0.027360,
2025-11-12T17:19:47.734755+00:00,1.055000,-0.027360,
2025-11-12T17:19:47.739755+00:00,1.060000,-0.025840,
2025-11-12T17:19:47.744755+00:00,1.065000,-0.023560,
2025-11-12T17:19:47.749755+00:00,1.070000,-0.025840,
2025-11-12T17:19:47.754755+00:00,1.075000,-0.026600,
2025-11-12T17:19:47.759755+00:00,1.080000,-0.025840,
2025-11-12T17:19:47.764755+00:00,1.085000,-0.026220,
2025-11-12T17:19:47.769755+00:00,1.090000,-0.027740,
2025-11-12T17:19:47.774755+00:00,1.095000,-0.029640,
2025-11-12T17:19:47.779755+00:00,1.100000,-0.027360,
2025-11-12T17:19:47.784755+00:00,1.105000,-0.022800,
2025-11-12T17:19:47.789755+00:00,1.110000,-0.021280,
2025-11-12T17:19:47.794755+00:00,1.115000,-0.023560,
2025-11-12T17:19:47.799755+00:00,1.120000,-0.025460,
2025-11-12T17:19:47.804755+00:00,1.125000,-0.016340,
2025-11-12T17:19:47.809755+00:00,1.130000,-0.006840,
2025-11-12T17:19:47.814755+00:00,1.135000,-0.002660,
2025-11-12T17:19:47.819755+00:00,1.140000,-0.007220,
2025-11-12T17:19:47.824755+00:00,1.145000,-0.020140,
2025-11-12T17:19:47.829755+00:00,1.150000,-0.033440,
2025-11-12T17:19:47.834755+00:00,1.155000,-0.043320,
2025-11-12T17:19:47.839755+00:00,1.160000,-0.045980,
2025-11-12T17:19:47.844755+00:00,1.165000,-0.043320,
2025-11-12T17:19:47.849755+00:00,1.170000,-0.037620,
2025-11-12T17:19:47.854755+00:00,1.175000,-0.033820,
2025-11-12T17:19:47.859755+00:00,1.180000,-0.036100,
2025-11-12T17:19:47.864755+00:00,1.185000,-0.036100,
2025-11-12T17:19:47.869755+00:00,1.190000,-0.034580,
2025-11-12T17:19:47.874755+00:00,1.195000,-0.030780,
2025-11-12T17:19:47.879755+00:00,1.200000,-0.028120,
2025-11-12T17:19:47.884755+00:00,1.205000,-0.025460,
2025-11-12T17:19:47.889755+00:00,1.210000,-0.025840,
2025-11-12T17:19:47.894755+00:00,1.215000,-0.027360,
2025-11-12T17:19:47.899755+00:00,1.220000,-0.025840,
2025-11-12T17:19:47.904755+00:00,1.225000,-0.025840,
2025-11-12T17:19:47.909755+00:00,1.230000,-0.030020,
2025-11-12T17:19:47.914755+00:00,1.235000,-0.032680,
2025-11-12T17:19:47.919755+00:00,1.240000,-0.031920,
2025-11-12T17:19:47.924755+00:00,1.245000,-0.027360,
2025-11-12T17:19:47.929755+00:00,1.250000,-0.014820,
2025-11-12T17:19:47.934755+00:00,1.255000,0.019760,
2025-11-12T17:19:47.939755+00:00,1.260000,0.101080,
2025-11-12T17:19:47.944755+00:00,1.265000,0.275500,
2025-11-12T17:19:47.949755+00:00,1.270000,0.582920,
2025-11-12T17:19:47.954755+00:00,1.275000,0.930240,
2025-11-12T17:19:47.959755+00:00,1.280000,1.051840,
2025-11-12T17:19:47.964755+00:00,1.285000,0.725420,
2025-11-12T17:19:47.969755+00:00,1.290000,0.053960,
2025-11-12T17:19:47.974755+00:00,1.295000,-0.566580,
2025-11-12T17:19:47.979755+00:00,1.300000,-0.818900,
2025-11-12T17:19:47.984755+00:00,1.305000,-0.729220,
2025-11-12T17:19:47.989755+00:00,1.310000,-0.538460,
2025-11-12T17:19:47.994755+00:00,1.315000,-0.407360,
2025-11-12T17:19:47.999755+00:00,1.320000,-0.334020,
2025-11-12T17:19:48.004755+00:00,1.325000,-0.273600,
2025-11-12T17:19:48.009755+00:00,1.330000,-0.218120,
2025-11-12T17:19:48.014755+00:00,1.335000,-0.173280,
2025-11-12T17:19:48.019755+00:00,1.340000,-0.135660,
2025-11-12T17:19:48.024755+00:00,1.345000,-0.107160,
2025-11-12T17:19:48.029755+00:00,1.350000,-0.084740,
2025-11-12T17:19:48.034755+00:00,1.355000,-0.070680,
2025-11-12T17:19:48.039755+00:00,1.360000,-0.057760,
2025-11-12T17:19:48.044755+00:00,1.365000,-0.045980,
2025-11-12T17:19:48.049755+00:00,1.370000,-0.035340,
2025-11-12T17:19:48.054755+00:00,1.375000,-0.026980,
2025-11-12T17:19:48.059755+00:00,1.380000,-0.020140,
2025-11-12T17:19:48.064755+00:00,1.385000,-0.015580,
2025-11-12T17:19:48.069755+00:00,1.390000,-0.013300,
2025-11-12T17:19:48.074755+00:00,1.395000,-0.013680,
2025-11-12T17:19:48.079755+00:00,1.400000,-0.014820,
2025-11-12T17:19:48.084755+00:00,1.405000,-0.012160,
2025-11-12T17:19:48.089755+00:00,1.410000,-0.010260,
2025-11-12T17:19:48.094755+00:00,1.415000,-0.008360,
2025-11-12T17:19:48.099755+00:00,1.420000,-0.006460,
2025-11-12T17:19:48.104755+00:00,1.425000,-0.004180,
2025-11-12T17:19:48.109755+00:00,1.430000,-0.003040,
2025-11-12T17:19:48.114755+00:00,1.435000,-0.001900,
2025-11-12T17:19:48.119755+00:00,1.440000,-0.000760,
2025-11-12T17:19:48.124755+00:00,1.445000,0.004940,
2025-11-12T17:19:48.129755+00:00,1.450000,0.009500,
2025-11-12T17:19:48.134755+00:00,1.455000,0.011400,
2025-11-12T17:19:48.139755+00:00,1.460000,0.011780,
2025-11-12T17:19:48.144755+00:00,1.465000,0.016340,
2025-11-12T17:19:48.149755+00:00,1.470000,0.023180,
2025-11-12T17:19:48.154755+00:00,1.475000,0.029640,
2025-11-12T17:19:48.159755+00:00,1.480000,0.033440,
2025-11-12T17:19:48.164755+00:00,1.485000,0.038000,
2025-11-12T17:19:48.169755+00:00,1.490000,0.040280,
2025-11-12T17:19:48.174755+00:00,1.495000,0.042940,
2025-11-12T17:19:48.179755+00:00,1.500000,0.042940,
2025-11-12T17:19:48.184755+00:00,1.505000,0.041420,
2025-11-12T17:19:48.189755+00:00,1.510000,0.036480,
2025-11-12T17:19:48.194755+00:00,1.515000,0.027740,
2025-11-12T17:19:48.199755+00:00,1.520000,0.013680,
2025-11-12T17:19:48.204755+00:00,1.525000,-0.001140,
2025-11-12T17:19:48.209755+00:00,1.530000,-0.017480,
2025-11-12T17:19:48.214755+00:00,1.535000,-0.038760,
2025-11-12T17:19:48.219755+00:00,1.540000,-0.067260,
2025-11-12T17:19:48.224755+00:00,1.545000,-0.099560,
2025-11-12T17:19:48.229755+00:00,1.550000,-0.130720,
2025-11-12T17:19:48.234755+00:00,1.555000,-0.152760,
2025-11-12T17:19:48.239755+00:00,1.560000,-0.163780,
2025-11-12T17:19:48.244755+00:00,1.565000,-0.167200,
2025-11-12T17:19:48.249755+00:00,1.570000,-0.164920,
2025-11-12T17:19:48.254755+00:00,1.575000,-0.158080,
2025-11-12T17:19:48.259755+00:00,1.580000,-0.147440,
2025-11-12T17:19:48.264755+00:00,1.585000,-0.134520,
2025-11-12T17:19:48.269755+00:00,1.590000,-0.120080,
2025-11-12T17:19:48.274755+00:00,1.595000,-0.106780,
2025-11-12T17:19:48.279755+00:00,1.600000,-0.092720,
2025-11-12T17:19:48.284755+00:00,1.605000,-0.079420,
2025-11-12T17:19:48.289755+00:00,1.610000,-0.066880,
2025-11-12T17:19:48.294755+00:00,1.615000,-0.057760,
2025-11-12T17:19:48.299755+00:00,1.620000,-0.050160,
2025-11-12T17:19:48.304755+00:00,1.625000,-0.045980,
2025-11-12T17:19:48.309755+00:00,1.630000,-0.043320,
2025-11-12T17:19:48.314755+00:00,1.635000,-0.040280,
2025-11-12T17:19:48.319755+00:00,1.640000,-0.035720,
2025-11-12T17:19:48.324755+00:00,1.645000,-0.032680,
2025-11-12T17:19:48.329755+00:00,1.650000,-0.030780,
2025-11-12T17:19:48.334755+00:00,1.655000,-0.027740,
2025-11-12T17:19:48.339755+00:00,1.660000,-0.024320,
2025-11-12T17:19:48.344755+00:00,1.665000,-0.024700,
2025-11-12T17:19:48.349755+00:00,1.670000,-0.027740,
2025-11-12T17:19:48.354755+00:00,1.675000,-0.029640,
2025-11-12T17:19:48.359755+00:00,1.680000,-0.028120,
2025-11-12T17:19:48.364755+00:00,1.685000,-0.024320,
2025-11-12T17:19:48.369755+00:00,1.690000,-0.022040,
2025-11-12T17:19:48.374755+00:00,1.695000,-0.021660,
2025-11-12T17:19:48.379755+00:00,1.700000,-0.022040,
2025-11-12T17:19:48.384755+00:00,1.705000,-0.025080,
2025-11-12T17:19:48.389755+00:00,1.710000,-0.029260,
2025-11-12T17:19:48.394755+00:00,1.715000,-0.030780,
2025-11-12T17:19:48.399755+00:00,1.720000,-0.028880,
2025-11-12T17:19:48.404755+00:00,1.725000,-0.026600,
2025-11-12T17:19:48.409755+00:00,1.730000,-0.027740,
2025-11-12T17:19:48.414755+00:00,1.735000,-0.028880,
2025-11-12T17:19:48.419755+00:00,1.740000,-0.028500,
2025-11-12T17:19:48.424755+00:00,1.745000,-0.025460,
2025-11-12T17:19:48.429755+00:00,1.750000,-0.023940,
2025-11-12T17:19:48.434755+00:00,1.755000,-0.026600,
2025-11-12T17:19:48.439755+00:00,1.760000,-0.029640,
2025-11-12T17:19:48.444755+00:00,1.765000,-0.031540,
2025-11-12T17:19:48.449755+00:00,1.770000,-0.031540,
2025-11-12T17:19:48.454755+00:00,1.775000,-0.030780,
2025-11-12T17:19:48.459755+00:00,1.780000,-0.030780,
2025-11-12T17:19:48.464755+00:00,1.785000,-0.030400,
2025-11-12T17:19:48.469755+00:00,1.790000,-0.031540,
2025-11-12T17:19:48.474755+00:00,1.795000,-0.032300,
2025-11-12T17:19:48.479755+00:00,1.800000,-0.032680,
2025-11-12T17:19:48.484755+00:00,1.805000,-0.032680,
2025-11-12T17:19:48.489755+00:00,1.810000,-0.031160,
2025-11-12T17:19:48.494755+00:00,1.815000,-0.030020,
2025-11-12T17:19:48.499755+00:00,1.820000,-0.030780,
2025-11-12T17:19:48.504755+00:00,1.825000,-0.030400,
2025-11-12T17:19:48.509755+00:00,1.830000,-0.031160,
2025-11-12T17:19:48.514755+00:00,1.835000,-0.030780,
2025-11-12T17:19:48.519755+00:00,1.840000,-0.028120,
2025-11-12T17:19:48.524755+00:00,1.845000,-0.024320,
2025-11-12T17:19:48.529755+00:00,1.850000,-0.024700,
2025-11-12T17:19:48.534755+00:00,1.855000,-0.026220,
2025-11-12T17:19:48.539755+00:00,1.860000,-0.027740,
2025-11-12T17:19:48.544755+00:00,1.865000,-0.026220,
2025-11-12T17:19:48.549755+00:00,1.870000,-0.024700,
2025-11-12T17:19:48.554755+00:00,1.875000,-0.024700,
2025-11-12T17:19:48.559755+00:00,1.880000,-0.028500,
2025-11-12T17:19:48.564755+00:00,1.885000,-0.030400,
2025-11-12T17:19:48.569755+00:00,1.890000,-0.028880,
2025-11-12T17:19:48.574755+00:00,1.895000,-0.026980,
2025-11-12T17:19:48.579755+00:00,1.900000,-0.025080,
2025-11-12T17:19:48.584755+00:00,1.905000,-0.025080,
2025-11-12T17:19:48.589755+00:00,1.910000,-0.025080,
2025-11-12T17:19:48.594755+00:00,1.915000,-0.027360,
2025-11-12T17:19:48.599755+00:00,1.920000,-0.030020,
2025-11-12T17:19:48.604755+00:00,1.925000,-0.032300,
2025-11-12T17:19:48.609755+00:00,1.930000,-0.030780,
2025-11-12T17:19:48.614755+00:00,1.935000,-0.026980,
2025-11-12T17:19:48.619755+00:00,1.940000,-0.025840,
2025-11-12T17:19:48.624755+00:00,1.945000,-0.024700,
2025-11-12T17:19:48.629755+00:00,1.950000,-0.017480,
2025-11-12T17:19:48.634755+00:00,1.955000,-0.007980,
2025-11-12T17:19:48.639755+00:00,1.960000,0.000000,
2025-11-12T17:19:48.644755+00:00,1.965000,-0.003040,
2025-11-12T17:19:48.649755+00:00,1.970000,-0.014060,
2025-11-12T17:19:48.654755+00:00,1.975000,-0.028120,
2025-11-12T17:19:48.659755+00:00,1.980000,-0.041040,
2025-11-12T17:19:48.664755+00:00,1.985000,-0.048640,
2025-11-12T17:19:48.669755+00:00,1.990000,-0.048260,
2025-11-12T17:19:48.674755+00:00,1.995000,-0.042560,
2025-11-12T17:19:48.679755+00:00,2.000000,-0.038000,
2025-11-12T17:19:48.684755+00:00,2.005000,-0.035720,
2025-11-12T17:19:48.689755+00:00,2.010000,-0.033820,
2025-11-12T17:19:48.694755+00:00,2.015000,-0.033820,
2025-11-12T17:19:48.699755+00:00,2.020000,-0.035340,
2025-11-12T17:19:48.704755+00:00,2.025000,-0.035340,
2025-11-12T17:19:48.709755+00:00,2.030000,-0.033820,
2025-11-12T17:19:48.714755+00:00,2.035000,-0.030020,
2025-11-12T17:19:48.719755+00:00,2.040000,-0.028500,
2025-11-12T17:19:48.724755+00:00,2.045000,-0.026980,
2025-11-12T17:19:48.729755+00:00,2.050000,-0.026600,
2025-11-12T17:19:48.734755+00:00,2.055000,-0.029260,
2025-11-12T17:19:48.739755+00:00,2.060000,-0.033060,
2025-11-12T17:19:48.744755+00:00,2.065000,-0.032680,
2025-11-12T17:19:48.749755+00:00,2.070000,-0.031160,
2025-11-12T17:19:48.754755+00:00,2.075000,-0.034200,
2025-11-12T17:19:48.759755+00:00,2.080000,-0.029640,
2025-11-12T17:19:48.764755+00:00,2.085000,0.012920,
2025-11-12T17:19:48.769755+00:00,2.090000,0.138700,
2025-11-12T17:19:48.774755+00:00,2.095000,0.397100,
2025-11-12T17:19:48.779755+00:00,2.100000,0.776720,
2025-11-12T17:19:48.784755+00:00,2.105000,1.103520,
2025-11-12T17:19:48.789755+00:00,2.110000,1.082620,
2025-11-12T17:19:48.794755+00:00,2.115000,0.574940,
2025-11-12T17:19:48.799755+00:00,2.120000,-0.181640,
2025-11-12T17:19:48.804755+00:00,2.125000,-0.749360,
2025-11-12T17:19:48.809755+00:00,2.130000,-0.890340,
2025-11-12T17:19:48.814755+00:00,2.135000,-0.729220,
2025-11-12T17:19:48.819755+00:00,2.140000,-0.526300,
2025-11-12T17:19:48.824755+00:00,2.145000,-0.402800,
2025-11-12T17:19:48.829755+00:00,2.150000,-0.332120,
2025-11-12T17:19:48.834755+00:00,2.155000,-0.270180,
2025-11-12T17:19:48.839755+00:00,2.160000,-0.215460,
2025-11-12T17:19:48.844755+00:00,2.165000,-0.171760,
2025-11-12T17:19:48.849755+00:00,2.170000,-0.134140,
2025-11-12T17:19:48.854755+00:00,2.175000,-0.103360,
2025-11-12T17:19:48.859755+00:00,2.180000,-0.080180,
2025-11-12T17:19:48.864755+00:00,2.185000,-0.062320,
2025-11-12T17:19:48.869755+00:00,2.190000,-0.049400,
2025-11-12T17:19:48.874755+00:00,2.195000,-0.039140,
2025-11-12T17:19:48.879755+00:00,2.200000,-0.032680,
2025-11-12T17:19:48.884755+00:00,2.205000,-0.029260,
2025-11-12T17:19:48.889755+00:00,2.210000,-0.025840,
2025-11-12T17:19:48.894755+00:00,2.215000,-0.021660,
2025-11-12T17:19:48.899755+00:00,2.220000,-0.017480,
2025-11-12T17:19:48.904755+00:00,2.225000,-0.013680,
2025-11-12T17:19:48.909755+00:00,2.230000,-0.011780,
2025-11-12T17:19:48.914755+00:00,2.235000,-0.010260,
2025-11-12T17:19:48.919755+00:00,2.240000,-0.007600,
2025-11-12T17:19:48.924755+00:00,2.245000,-0.007600,
2025-11-12T17:19:48.929755+00:00,2.250000,-0.008360,
2025-11-12T17:19:48.934755+00:00,2.255000,-0.007220,
2025-11-12T17:19:48.939755+00:00,2.260000,-0.004560,
2025-11-12T17:19:48.944755+00:00,2.265000,-0.001900,
2025-11-12T17:19:48.949755+00:00,2.270000,-0.001140,
2025-11-12T17:19:48.954755+00:00,2.275000,-0.001140,
2025-11-12T17:19:48.959755+00:00,2.280000,0.000380,
2025-11-12T17:19:48.964755+00:00,2.285000,0.005320,
2025-11-12T17:19:48.969755+00:00,2.290000,0.011020,
2025-11-12T17:19:48.974755+00:00,2.295000,0.017480,
2025-11-12T17:19:48.979755+00:00,2.300000,0.022800,
2025-11-12T17:19:48.984755+00:00,2.305000,0.026980,
2025-11-12T17:19:48.989755+00:00,2.310000,0.029260,
2025-11-12T17:19:48.994755+00:00,2.315000,0.031920,
2025-11-12T17:19:48.999755+00:00,2.320000,0.033820,
2025-11-12T17:19:49.004755+00:00,2.325000,0.035720,
2025-11-12T17:19:49.009755+00:00,2.330000,0.037620,
2025-11-12T17:19:49.014755+00:00,2.335000,0.036100,
2025-11-12T17:19:49.019755+00:00,2.340000,0.027740,
2025-11-12T17:19:49.024755+00:00,2.345000,0.017860,
2025-11-12T17:19:49.029755+00:00,2.350000,0.007600,
2025-11-12T17:19:49.034755+00:00,2.355000,-0.004180,
2025-11-12T17:19:49.039755+00:00,2.360000,-0.020900,
2025-11-12T17:19:49.044755+00:00,2.365000,-0.045220,
2025-11-12T17:19:49.049755+00:00,2.370000,-0.072200,
2025-11-12T17:19:49.054755+00:00,2.375000,-0.101080,
2025-11-12T17:19:49.059755+00:00,2.380000,-0.127680,
2025-11-12T17:19:49.064755+00:00,2.385000,-0.148580,
2025-11-12T17:19:49.069755+00:00,2.390000,-0.159600,
2025-11-12T17:19:49.074755+00:00,2.395000,-0.162260,
2025-11-12T17:19:49.079755+00:00,2.400000,-0.159220,
2025-11-12T17:19:49.084755+00:00,2.405000,-0.152760,
2025-11-12T17:19:49.089755+00:00,2.410000,-0.142500,
2025-11-12T17:19:49.094755+00:00,2.415000,-0.129200,
2025-11-12T17:19:49.099755+00:00,2.420000,-0.115140,
2025-11-12T17:19:49.104755+00:00,2.425000,-0.100700,
2025-11-12T17:19:49.109755+00:00,2.430000,-0.087400,
2025-11-12T17:19:49.114755+00:00,2.435000,-0.073720,
2025-11-12T17:19:49.119755+00:00,2.440000,-0.062700,
2025-11-12T17:19:49.124755+00:00,2.445000,-0.053580,
2025-11-12T17:19:49.129755+00:00,2.450000,-0.049020,
2025-11-12T17:19:49.134755+00:00,2.455000,-0.043320,
2025-11-12T17:19:49.139755+00:00,2.460000,-0.037240,
2025-11-12T17:19:49.144755+00:00,2.465000,-0.032680,
2025-11-12T17:19:49.149755+00:00,2.470000,-0.029640,
2025-11-12T17:19:49.154755+00:00,2.475000,-0.029260,
2025-11-12T17:19:49.159755+00:00,2.480000,-0.029260,
2025-11-12T17:19:49.164755+00:00,2.485000,-0.026600,
2025-11-12T17:19:49.169755+00:00,2.490000,-0.024320,
2025-11-12T17:19:49.174755+00:00,2.495000,-0.023940,
2025-11-12T17:19:49.179755+00:00,2.500000,-0.025460,
2025-11-12T17:19:49.184755+00:00,2.505000,-0.027740,
2025-11-12T17:19:49.189755+00:00,2.510000,-0.029640,
2025-11-12T17:19:49.194755+00:00,2.515000,-0.029260,
2025-11-12T17:19:49.199755+00:00,2.520000,-0.028500,
2025-11-12T17:19:49.204755+00:00,2.525000,-0.026220,
2025-11-12T17:19:49.209755+00:00,2.530000,-0.025080,
2025-11-12T17:19:49.214755+00:00,2.535000,-0.024320,
2025-11-12T17:19:49.219755+00:00,2.540000,-0.026600,
2025-11-12T17:19:49.224755+00:00,2.545000,-0.027740,
2025-11-12T17:19:49.229755+00:00,2.550000,-0.028500,
2025-11-12T17:19:49.234755+00:00,2.555000,-0.028120,
2025-11-12T17:19:49.239755+00:00,2.560000,-0.030780,
2025-11-12T17:19:49.244755+00:00,2.565000,-0.030780,
2025-11-12T17:19:49.249755+00:00,2.570000,-0.030780,
2025-11-12T17:19:49.254755+00:00,2.575000,-0.027740,
2025-11-12T17:19:49.259755+00:00,2.580000,-0.026600,
2025-11-12T17:19:49.264755+00:00,2.585000,-0.026980,
2025-11-12T17:19:49.269755+00:00,2.590000,-0.030400,
2025-11-12T17:19:49.274755+00:00,2.595000,-0.030400,
2025-11-12T17:19:49.279755+00:00,2.600000,-0.030020,
2025-11-12T17:19:49.284755+00:00,2.605000,-0.027740,
2025-11-12T17:19:49.289755+00:00,2.610000,-0.030780,
2025-11-12T17:19:49.294755+00:00,2.615000,-0.033820,
2025-11-12T17:19:49.299755+00:00,2.620000,-0.033440,
2025-11-12T17:19:49.304755+00:00,2.625000,-0.029640,
2025-11-12T17:19:49.309755+00:00,2.630000,-0.025080,
2025-11-12T17:19:49.314755+00:00,2.635000,-0.024320,
2025-11-12T17:19:49.319755+00:00,2.640000,-0.027740,
2025-11-12T17:19:49.324755+00:00,2.645000,-0.028880,
2025-11-12T17:19:49.329755+00:00,2.650000,-0.028500,
2025-11-12T17:19:49.334755+00:00,2.655000,-0.028120,
2025-11-12T17:19:49.339755+00:00,2.660000,-0.030400,
2025-11-12T17:19:49.344755+00:00,2.665000,-0.030780,
2025-11-12T17:19:49.349755+00:00,2.670000,-0.028500,
2025-11-12T17:19:49.354755+00:00,2.675000,-0.025840,
2025-11-12T17:19:49.359755+00:00,2.680000,-0.024320,
2025-11-12T17:19:49.364755+00:00,2.685000,-0.024700,
2025-11-12T17:19:49.369755+00:00,2.690000,-0.025460,
2025-11-12T17:19:49.374755+00:00,2.695000,-0.026600,
2025-11-12T17:19:49.379755+00:00,2.700000,-0.027360,
2025-11-12T17:19:49.384755+00:00,2.705000,-0.029260,
2025-11-12T17:19:49.389755+00:00,2.710000,-0.029260,
2025-11-12T17:19:49.394755+00:00,2.715000,-0.028120,
2025-11-12T17:19:49.399755+00:00,2.720000,-0.026980,
2025-11-12T17:19:49.404755+00:00,2.725000,-0.025840,
2025-11-12T17:19:49.409755+00:00,2.730000,-0.024320,
2025-11-12T17:19:49.414755+00:00,2.735000,-0.023560,
2025-11-12T17:19:49.419755+00:00,2.740000,-0.026220,
2025-11-12T17:19:49.424755+00:00,2.745000,-0.029640,
2025-11-12T17:19:49.429755+00:00,2.750000,-0.031160,
2025-11-12T17:19:49.434755+00:00,2.755000,-0.028500,
2025-11-12T17:19:49.439755+00:00,2.760000,-0.026220,
2025-11-12T17:19:49.444755+00:00,2.765000,-0.024320,
2025-11-12T17:19:49.449755+00:00,2.770000,-0.026220,
2025-11-12T17:19:49.454755+00:00,2.775000,-0.028880,
2025-11-12T17:19:49.459755+00:00,2.780000,-0.031920,
2025-11-12T17:19:49.464755+00:00,2.785000,-0.034960,
2025-11-12T17:19:49.469755+00:00,2.790000,-0.034960,
2025-11-12T17:19:49.474755+00:00,2.795000,-0.031920,
2025-11-12T17:19:49.479755+00:00,2.800000,-0.025840,
2025-11-12T17:19:49.484755+00:00,2.805000,-0.023180,
2025-11-12T17:19:49.489755+00:00,2.810000,-0.020900,
2025-11-12T17:19:49.494755+00:00,2.815000,-0.015580,
2025-11-12T17:19:49.499755+00:00,2.820000,-0.009120,
2025-11-12T17:19:49.504755+00:00,2.825000,-0.005320,
2025-11-12T17:19:49.509755+00:00,2.830000,-0.012540,
2025-11-12T17:19:49.514755+00:00,2.835000,-0.026600,
2025-11-12T17:19:49.519755+00:00,2.840000,-0.039900,
2025-11-12T17:19:49.524755+00:00,2.845000,-0.047880,
2025-11-12T17:19:49.529755+00:00,2.850000,-0.048260,
2025-11-12T17:19:49.534755+00:00,2.855000,-0.042560,
2025-11-12T17:19:49.539755+00:00,2.860000,-0.036860,
2025-11-12T17:19:49.544755+00:00,2.865000,-0.036480,
2025-11-12T17:19:49.549755+00:00,2.870000,-0.039520,
2025-11-12T17:19:49.554755+00:00,2.875000,-0.040660,
2025-11-12T17:19:49.559755+00:00,2.880000,-0.038760,
2025-11-12T17:19:49.564755+00:00,2.885000,-0.036100,
2025-11-12T17:19:49.569755+00:00,2.890000,-0.034200,
2025-11-12T17:19:49.574755+00:00,2.895000,-0.033820,
2025-11-12T17:19:49.579755+00:00,2.900000,-0.031540,
2025-11-12T17:19:49.584755+00:00,2.905000,-0.030780,
2025-11-12T17:19:49.589755+00:00,2.910000,-0.029640,
2025-11-12T17:19:49.594755+00:00,2.915000,-0.030020,
2025-11-12T17:19:49.599755+00:00,2.920000,-0.033440,
2025-11-12T17:19:49.604755+00:00,2.925000,-0.036480,
2025-11-12T17:19:49.609755+00:00,2.930000,-0.034200,
2025-11-12T17:19:49.614755+00:00,2.935000,-0.033440,
2025-11-12T17:19:49.619755+00:00,2.940000,-0.035720,
2025-11-12T17:19:49.624755+00:00,2.945000,-0.026980,
2025-11-12T17:19:49.629755+00:00,2.950000,0.026980,
2025-11-12T17:19:49.634755+00:00,2.955000,0.171000,
2025-11-12T17:19:49.639755+00:00,2.960000,0.449920,
2025-11-12T17:19:49.644755+00:00,2.965000,0.834860,
2025-11-12T17:19:49.649755+00:00,2.970000,1.123660,
2025-11-12T17:19:49.654755+00:00,2.975000,1.021060,
2025-11-12T17:19:49.659755+00:00,2.980000,0.448400,
2025-11-12T17:19:49.664755+00:00,2.985000,-0.303240,
2025-11-12T17:19:49.669755+00:00,2.990000,-0.803320,
2025-11-12T17:19:49.674755+00:00,2.995000,-0.875900,
2025-11-12T17:19:49.679755+00:00,3.000000,-0.692360,
2025-11-12T17:19:49.684755+00:00,3.005000,-0.498560,
2025-11-12T17:19:49.689755+00:00,3.010000,-0.387980,
2025-11-12T17:19:49.694755+00:00,3.015000,-0.322240,
2025-11-12T17:19:49.699755+00:00,3.020000,-0.262580,
2025-11-12T17:19:49.704755+00:00,3.025000,-0.207860,
2025-11-12T17:19:49.709755+00:00,3.030000,-0.163400,
2025-11-12T17:19:49.714755+00:00,3.035000,-0.129580,
2025-11-12T17:19:49.719755+00:00,3.040000,-0.102220,
2025-11-12T17:19:49.724755+00:00,3.045000,-0.081700,
2025-11-12T17:19:49.729755+00:00,3.050000,-0.065740,
2025-11-12T17:19:49.734755+00:00,3.055000,-0.051300,
2025-11-12T17:19:49.739755+00:00,3.060000,-0.040280,
2025-11-12T17:19:49.744755+00:00,3.065000,-0.031920,
2025-11-12T17:19:49.749755+00:00,3.070000,-0.028500,
2025-11-12T17:19:49.754755+00:00,3.075000,-0.024320,
2025-11-12T17:19:49.759755+00:00,3.080000,-0.023560,
2025-11-12T17:19:49.764755+00:00,3.085000,-0.020140,
2025-11-12T17:19:49.769755+00:00,3.090000,-0.019000,
2025-11-12T17:19:49.774755+00:00,3.095000,-0.015960,
2025-11-12T17:19:49.779755+00:00,3.100000,-0.015580,
2025-11-12T17:19:49.784755+00:00,3.105000,-0.014440,
2025-11-12T17:19:49.789755+00:00,3.110000,-0.014440,
2025-11-12T17:19:49.794755+00:00,3.115000,-0.011780,
2025-11-12T17:19:49.799755+00:00,3.120000,-0.008740,
2025-11-12T17:19:49.804755+00:00,3.125000,-0.005320,
2025-11-12T17:19:49.809755+00:00,3.130000,-0.003800,
2025-11-12T17:19:49.814755+00:00,3.135000,-0.002280,
2025-11-12T17:19:49.819755+00:00,3.140000,-0.000760,
2025-11-12T17:19:49.824755+00:00,3.145000,0.003420,
2025-11-12T17:19:49.829755+00:00,3.150000,0.007600,
2025-11-12T17:19:49.834755+00:00,3.155000,0.009120,
2025-11-12T17:19:49.839755+00:00,3.160000,0.011780,
2025-11-12T17:19:49.844755+00:00,3.165000,0.015200,
2025-11-12T17:19:49.849755+00:00,3.170000,0.021280,
2025-11-12T17:19:49.854755+00:00,3.175000,0.028880,
2025-11-12T17:19:49.859755+00:00,3.180000,0.033820,
2025-11-12T17:19:49.864755+00:00,3.185000,0.038000,
2025-11-12T17:19:49.869755+00:00,3.190000,0.039520,
2025-11-12T17:19:49.874755+00:00,3.195000,0.038760,
2025-11-12T17:19:49.879755+00:00,3.200000,0.033440,
2025-11-12T17:19:49.884755+00:00,3.205000,0.026980,
2025-11-12T17:19:49.889755+00:00,3.210000,0.018240,
2025-11-12T17:19:49.894755+00:00,3.215000,0.008360,
2025-11-12T17:19:49.899755+00:00,3.220000,-0.007980,
2025-11-12T17:19:49.904755+00:00,3.225000,-0.026980,
2025-11-12T17:19:49.909755+00:00,3.230000,-0.050160,
2025-11-12T17:19:49.914755+00:00,3.235000,-0.076760,
2025-11-12T17:19:49.919755+00:00,3.240000,-0.105260,
2025-11-12T17:19:49.924755+00:00,3.245000,-0.130720,
2025-11-12T17:19:49.929755+00:00,3.250000,-0.153140,
2025-11-12T17:19:49.934755+00:00,3.255000,-0.166060,
2025-11-12T17:19:49.939755+00:00,3.260000,-0.169860,
2025-11-12T17:19:49.944755+00:00,3.265000,-0.163780,
2025-11-12T17:19:49.949755+00:00,3.270000,-0.153900,
2025-11-12T17:19:49.954755+00:00,3.275000,-0.142120,
2025-11-12T17:19:49.959755+00:00,3.280000,-0.130340,
2025-11-12T17:19:49.964755+00:00,3.285000,-0.115900,
2025-11-12T17:19:49.969755+00:00,3.290000,-0.099180,
2025-11-12T17:19:49.974755+00:00,3.295000,-0.084740,
2025-11-12T17:19:49.979755+00:00,3.300000,-0.074100,
2025-11-12T17:19:49.984755+00:00,3.305000,-0.063840,
2025-11-12T17:19:49.989755+00:00,3.310000,-0.055860,
2025-11-12T17:19:49.994755+00:00,3.315000,-0.051300,
2025-11-12T17:19:49.999755+00:00,3.320000,-0.045600,
2025-11-12T17:19:50.004755+00:00,3.325000,-0.041420,
2025-11-12T17:19:50.009755+00:00,3.330000,-0.037240,
2025-11-12T17:19:50.014755+00:00,3.335000,-0.034960,
2025-11-12T17:19:50.019755+00:00,3.340000,-0.032680,
2025-11-12T17:19:50.024755+00:00,3.345000,-0.030400,
2025-11-12T17:19:50.029755+00:00,3.350000,-0.026600,
2025-11-12T17:19:50.034755+00:00,3.355000,-0.025840,
2025-11-12T17:19:50.039755+00:00,3.360000,-0.028120,
2025-11-12T17:19:50.044755+00:00,3.365000,-0.028500,
2025-11-12T17:19:50.049755+00:00,3.370000,-0.025840,
2025-11-12T17:19:50.054755+00:00,3.375000,-0.022800,
2025-11-12T17:19:50.059755+00:00,3.380000,-0.024700,
2025-11-12T17:19:50.064755+00:00,3.385000,-0.027740,
2025-11-12T17:19:50.069755+00:00,3.390000,-0.028500,
2025-11-12T17:19:50.074755+00:00,3.395000,-0.029640,
2025-11-12T17:19:50.079755+00:00,3.400000,-0.029640,
2025-11-12T17:19:50.084755+00:00,3.405000,-0.028120,
2025-11-12T17:19:50.089755+00:00,3.410000,-0.026220,
2025-11-12T17:19:50.094755+00:00,3.415000,-0.025840,
2025-11-12T17:19:50.099755+00:00,3.420000,-0.027360,
2025-11-12T17:19:50.104755+00:00,3.425000,-0.030020,
2025-11-12T17:19:50.109755+00:00,3.430000,-0.032300,
2025-11-12T17:19:50.114755+00:00,3.435000,-0.033060,
2025-11-12T17:19:50.119755+00:00,3.440000,-0.034200,
2025-11-12T17:19:50.124755+00:00,3.445000,-0.033440,
2025-11-12T17:19:50.129755+00:00,3.450000,-0.033060,
2025-11-12T17:19:50.134755+00:00,3.455000,-0.032680,
2025-11-12T17:19:50.139755+00:00,3.460000,-0.034580,
2025-11-12T17:19:50.144755+00:00,3.465000,-0.034580,
2025-11-12T17:19:50.149755+00:00,3.470000,-0.033820,
2025-11-12T17:19:50.154755+00:00,3.475000,-0.031920,
2025-11-12T17:19:50.159755+00:00,3.480000,-0.030400,
2025-11-12T17:19:50.164755+00:00,3.485000,-0.028880,
2025-11-12T17:19:50.169755+00:00,3.490000,-0.029640,
2025-11-12T17:19:50.174755+00:00,3.495000,-0.031540,
2025-11-12T17:19:50.179755+00:00,3.500000,-0.033820,
2025-11-12T17:19:50.184755+00:00,3.505000,-0.034580,
2025-11-12T17:19:50.189755+00:00,3.510000,-0.033060,
2025-11-12T17:19:50.194755+00:00,3.515000,-0.030400,
2025-11-12T17:19:50.199755+00:00,3.520000,-0.026220,
2025-11-12T17:19:50.204755+00:00,3.525000,-0.024700,
2025-11-12T17:19:50.209755+00:00,3.530000,-0.024320,
2025-11-12T17:19:50.214755+00:00,3.535000,-0.027360,
2025-11-12T17:19:50.219755+00:00,3.540000,-0.030020,
2025-11-12T17:19:50.224755+00:00,3.545000,-0.031920,
2025-11-12T17:19:50.229755+00:00,3.550000,-0.031540,
2025-11-12T17:19:50.234755+00:00,3.555000,-0.032680,
2025-11-12T17:19:50.239755+00:00,3.560000,-0.030780,
2025-11-12T17:19:50.244755+00:00,3.565000,-0.029640,
2025-11-12T17:19:50.249755+00:00,3.570000,-0.027740,
2025-11-12T17:19:50.254755+00:00,3.575000,-0.028880,
2025-11-12T17:19:50.259755+00:00,3.580000,-0.029640,
2025-11-12T17:19:50.264755+00:00,3.585000,-0.031160,
2025-11-12T17:19:50.269755+00:00,3.590000,-0.030780,
2025-11-12T17:19:50.274755+00:00,3.595000,-0.028880,
2025-11-12T17:19:50.279755+00:00,3.600000,-0.026600,
2025-11-12T17:19:50.284755+00:00,3.605000,-0.025460,
2025-11-12T17:19:50.289755+00:00,3.610000,-0.027360,
2025-11-12T17:19:50.294755+00:00,3.615000,-0.030020,
2025-11-12T17:19:50.299755+00:00,3.620000,-0.030780,
2025-11-12T17:19:50.304755+00:00,3.625000,-0.029260,
2025-11-12T17:19:50.309755+00:00,3.630000,-0.027360,
2025-11-12T17:19:50.314755+00:00,3.635000,-0.028120,
2025-11-12T17:19:50.319755+00:00,3.640000,-0.027360,
2025-11-12T17:19:50.324755+00:00,3.645000,-0.024700,
2025-11-12T17:19:50.329755+00:00,3.650000,-0.023560,
2025-11-12T17:19:50.334755+00:00,3.655000,-0.027740,
2025-11-12T17:19:50.339755+00:00,3.660000,-0.033440,
2025-11-12T17:19:50.344755+00:00,3.665000,-0.036480,
2025-11-12T17:19:50.349755+00:00,3.670000,-0.032300,
2025-11-12T17:19:50.354755+00:00,3.675000,-0.026220,
2025-11-12T17:19:50.359755+00:00,3.680000,-0.023560,
2025-11-12T17:19:50.364755+00:00,3.685000,-0.021280,
2025-11-12T17:19:50.369755+00:00,3.690000,-0.014440,
2025-11-12T17:19:50.374755+00:00,3.695000,-0.004940,
2025-11-12T17:19:50.379755+00:00,3.700000,0.000760,
2025-11-12T17:19:50.384755+00:00,3.705000,-0.006460,
2025-11-12T17:19:50.389755+00:00,3.710000,-0.025460,
2025-11-12T17:19:50.394755+00:00,3.715000,-0.042940,
2025-11-12T17:19:50.399755+00:00,3.720000,-0.051680,
2025-11-12T17:19:50.404755+00:00,3.725000,-0.049780,
2025-11-12T17:19:50.409755+00:00,3.730000,-0.043700,
2025-11-12T17:19:50.414755+00:00,3.735000,-0.039900,
2025-11-12T17:19:50.419755+00:00,3.740000,-0.039520,
2025-11-12T17:19:50.424755+00:00,3.745000,-0.038760,
2025-11-12T17:19:50.429755+00:00,3.750000,-0.036100,
2025-11-12T17:19:50.434755+00:00,3.755000,-0.033440,
2025-11-12T17:19:50.439755+00:00,3.760000,-0.033060,
2025-11-12T17:19:50.444755+00:00,3.765000,-0.032300,
2025-11-12T17:19:50.449755+00:00,3.770000,-0.032680,
2025-11-12T17:19:50.454755+00:00,3.775000,-0.033060,
2025-11-12T17:19:50.459755+00:00,3.780000,-0.032300,
2025-11-12T17:19:50.464755+00:00,3.785000,-0.030780,
2025-11-12T17:19:50.469755+00:00,3.790000,-0.031160,
2025-11-12T17:19:50.474755+00:00,3.795000,-0.035340,
2025-11-12T17:19:50.479755+00:00,3.800000,-0.037240,
2025-11-12T17:19:50.484755+00:00,3.805000,-0.034200,
2025-11-12T17:19:50.489755+00:00,3.810000,-0.031540,
2025-11-12T17:19:50.494755+00:00,3.815000,-0.037240,
2025-11-12T17:19:50.499755+00:00,3.820000,-0.033060,
2025-11-12T17:19:50.504755+00:00,3.825000,0.015580,
2025-11-12T17:19:50.509755+00:00,3.830000,0.156940,
2025-11-12T17:19:50.514755+00:00,3.835000,0.435860,
2025-11-12T17:19:50.519755+00:00,3.840000,0.824220,
2025-11-12T17:19:50.524755+00:00,3.845000,1.119860,
2025-11-12T17:19:50.529755+00:00,3.850000,1.027520,
2025-11-12T17:19:50.534755+00:00,3.855000,0.462080,
2025-11-12T17:19:50.539755+00:00,3.860000,-0.288800,
2025-11-12T17:19:50.544755+00:00,3.865000,-0.792300,
2025-11-12T17:19:50.549755+00:00,3.870000,-0.869060,
2025-11-12T17:19:50.554755+00:00,3.875000,-0.687040,
2025-11-12T17:19:50.559755+00:00,3.880000,-0.495900,
2025-11-12T17:19:50.564755+00:00,3.885000,-0.388740,
2025-11-12T17:19:50.569755+00:00,3.890000,-0.324140,
2025-11-12T17:19:50.574755+00:00,3.895000,-0.264100,
2025-11-12T17:19:50.579755+00:00,3.900000,-0.210140,
2025-11-12T17:19:50.584755+00:00,3.905000,-0.166060,
2025-11-12T17:19:50.589755+00:00,3.910000,-0.129580,
2025-11-12T17:19:50.594755+00:00,3.915000,-0.101460,
2025-11-12T17:19:50.599755+00:00,3.920000,-0.080940,
2025-11-12T17:19:50.604755+00:00,3.925000,-0.065740,
2025-11-12T17:19:50.609755+00:00,3.930000,-0.053200,
2025-11-12T17:19:50.614755+00:00,3.935000,-0.042180,
2025-11-12T17:19:50.619755+00:00,3.940000,-0.034960,
2025-11-12T17:19:50.624755+00:00,3.945000,-0.028120,
2025-11-12T17:19:50.629755+00:00,3.950000,-0.024320,
2025-11-12T17:19:50.634755+00:00,3.955000,-0.020140,
2025-11-12T17:19:50.639755+00:00,3.960000,-0.017480,
2025-11-12T17:19:50.644755+00:00,3.965000,-0.017860,
2025-11-12T17:19:50.649755+00:00,3.970000,-0.017480,
2025-11-12T17:19:50.654755+00:00,3.975000,-0.013300,
2025-11-12T17:19:50.659755+00:00,3.980000,-0.008740,
2025-11-12T17:19:50.664755+00:00,3.985000,-0.006460,
2025-11-12T17:19:50.669755+00:00,3.990000,-0.008360,
2025-11-12T17:19:50.674755+00:00,3.995000,-0.010260,
2025-11-12T17:19:50.679755+00:00,4.000000,-0.007980,
2025-11-12T17:19:50.684755+00:00,4.005000,-0.004180,
2025-11-12T17:19:50.689755+00:00,4.010000,-0.000760,
2025-11-12T17:19:50.694755+00:00,4.015000,0.003040,
2025-11-12T17:19:50.699755+00:00,4.020000,0.006840,
2025-11-12T17:19:50.704755+00:00,4.025000,0.009880,
2025-11-12T17:19:50.709755+00:00,4.030000,0.011020,
2025-11-12T17:19:50.714755+00:00,4.035000,0.014060,
2025-11-12T17:19:50.719755+00:00,4.040000,0.019760,
2025-11-12T17:19:50.724755+00:00,4.045000,0.025840,
2025-11-12T17:19:50.729755+00:00,4.050000,0.031540,
2025-11-12T17:19:50.734755+00:00,4.055000,0.035340,
2025-11-12T17:19:50.739755+00:00,4.060000,0.038760,
2025-11-12T17:19:50.744755+00:00,4.065000,0.039900,
2025-11-12T17:19:50.749755+00:00,4.070000,0.036480,
2025-11-12T17:19:50.754755+00:00,4.075000,0.030020,
2025-11-12T17:19:50.759755+00:00,4.080000,0.023940,
2025-11-12T17:19:50.764755+00:00,4.085000,0.019380,
2025-11-12T17:19:50.769755+00:00,4.090000,0.011780,
2025-11-12T17:19:50.774755+00:00,4.095000,-0.002280,
2025-11-12T17:19:50.779755+00:00,4.100000,-0.021660,
2025-11-12T17:19:50.784755+00:00,4.105000,-0.047880,
2025-11-12T17:19:50.789755+00:00,4.110000,-0.077140,
2025-11-12T17:19:50.794755+00:00,4.115000,-0.105640,
2025-11-12T17:19:50.799755+00:00,4.120000,-0.130720,
2025-11-12T17:19:50.804755+00:00,4.125000,-0.150860,
2025-11-12T17:19:50.809755+00:00,4.130000,-0.164920,
2025-11-12T17:19:50.814755+00:00,4.135000,-0.171380,
2025-11-12T17:19:50.819755+00:00,4.140000,-0.167960,
2025-11-12T17:19:50.824755+00:00,4.145000,-0.157320,
2025-11-12T17:19:50.829755+00:00,4.150000,-0.144780,
2025-11-12T17:19:50.834755+00:00,4.155000,-0.131100,
2025-11-12T17:19:50.839755+00:00,4.160000,-0.118180,
2025-11-12T17:19:50.844755+00:00,4.165000,-0.104120,
2025-11-12T17:19:50.849755+00:00,4.170000,-0.089680,
2025-11-12T17:19:50.854755+00:00,4.175000,-0.076760,
2025-11-12T17:19:50.859755+00:00,4.180000,-0.064600,
2025-11-12T17:19:50.864755+00:00,4.185000,-0.057380,
2025-11-12T17:19:50.869755+00:00,4.190000,-0.053580,
2025-11-12T17:19:50.874755+00:00,4.195000,-0.048640,
2025-11-12T17:19:50.879755+00:00,4.200000,-0.042560,
2025-11-12T17:19:50.884755+00:00,4.205000,-0.036860,
2025-11-12T17:19:50.889755+00:00,4.210000,-0.033440,
2025-11-12T17:19:50.894755+00:00,4.215000,-0.026980,
2025-11-12T17:19:50.899755+00:00,4.220000,-0.023560,
2025-11-12T17:19:50.904755+00:00,4.225000,-0.022800,
2025-11-12T17:19:50.909755+00:00,4.230000,-0.025460,
2025-11-12T17:19:50.914755+00:00,4.235000,-0.029260,
2025-11-12T17:19:50.919755+00:00,4.240000,-0.032680,
2025-11-12T17:19:50.924755+00:00,4.245000,-0.033440,
2025-11-12T17:19:50.929755+00:00,4.250000,-0.033440,
2025-11-12T17:19:50.934755+00:00,4.255000,-0.031540,
2025-11-12T17:19:50.939755+00:00,4.260000,-0.028500,
2025-11-12T17:19:50.944755+00:00,4.265000,-0.025080,
2025-11-12T17:19:50.949755+00:00,4.270000,-0.026220,
2025-11-12T17:19:50.954755+00:00,4.275000,-0.028120,
2025-11-12T17:19:50.959755+00:00,4.280000,-0.029640,
2025-11-12T17:19:50.964755+00:00,4.285000,-0.028880,
2025-11-12T17:19:50.969755+00:00,4.290000,-0.026980,
2025-11-12T17:19:50.974755+00:00,4.295000,-0.025080,
2025-11-12T17:19:50.979755+00:00,4.300000,-0.026980,
2025-11-12T17:19:50.984755+00:00,4.305000,-0.030020,
2025-11-12T17:19:50.989755+00:00,4.310000,-0.033060,
2025-11-12T17:19:50.994755+00:00,4.315000,-0.032680,
2025-11-12T17:19:50.999755+00:00,4.320000,-0.033060,
2025-11-12T17:19:51.004755+00:00,4.325000,-0.032680,
2025-11-12T17:19:51.009755+00:00,4.330000,-0.031920,
2025-11-12T17:19:51.014755+00:00,4.335000,-0.031920,
2025-11-12T17:19:51.019755+00:00,4.340000,-0.033060,
2025-11-12T17:19:51.024755+00:00,4.345000,-0.033060,
2025-11-12T17:19:51.029755+00:00,4.350000,-0.031160,
2025-11-12T17:19:51.034755+00:00,4.355000,-0.029260,
2025-11-12T17:19:51.039755+00:00,4.360000,-0.027740,
2025-11-12T17:19:51.044755+00:00,4.365000,-0.029260,
2025-11-12T17:19:51.049755+00:00,4.370000,-0.031160,
2025-11-12T17:19:51.054755+00:00,4.375000,-0.032300,
2025-11-12T17:19:51.059755+00:00,4.380000,-0.032300,
2025-11-12T17:19:51.064755+00:00,4.385000,-0.033440,
2025-11-12T17:19:51.069755+00:00,4.390000,-0.033060,
2025-11-12T17:19:51.074755+00:00,4.395000,-0.032300,
2025-11-12T17:19:51.079755+00:00,4.400000,-0.030400,
2025-11-12T17:19:51.084755+00:00,4.405000,-0.029260,
2025-11-12T17:19:51.089755+00:00,4.410000,-0.029260,
2025-11-12T17:19:51.094755+00:00,4.415000,-0.030020,
2025-11-12T17:19:51.099755+00:00,4.420000,-0.029640,
2025-11-12T17:19:51.104755+00:00,4.425000,-0.029640,
2025-11-12T17:19:51.109755+00:00,4.430000,-0.027740,
2025-11-12T17:19:51.114755+00:00,4.435000,-0.026600,
2025-11-12T17:19:51.119755+00:00,4.440000,-0.026600,
2025-11-12T17:19:51.124755+00:00,4.445000,-0.027740,
2025-11-12T17:19:51.129755+00:00,4.450000,-0.029260,
2025-11-12T17:19:51.134755+00:00,4.455000,-0.029260,
2025-11-12T17:19:51.139755+00:00,4.460000,-0.028880,
2025-11-12T17:19:51.144755+00:00,4.465000,-0.026980,
2025-11-12T17:19:51.149755+00:00,4.470000,-0.026220,
2025-11-12T17:19:51.154755+00:00,4.475000,-0.027360,
2025-11-12T17:19:51.159755+00:00,4.480000,-0.028500,
2025-11-12T17:19:51.164755+00:00,4.485000,-0.029260,
2025-11-12T17:19:51.169755+00:00,4.490000,-0.031540,
2025-11-12T17:19:51.174755+00:00,4.495000,-0.030780,
2025-11-12T17:19:51.179755+00:00,4.500000,-0.028880,
2025-11-12T17:19:51.184755+00:00,4.505000,-0.028880,
2025-11-12T17:19:51.189755+00:00,4.510000,-0.028880,
2025-11-12T17:19:51.194755+00:00,4.515000,-0.028500,
2025-11-12T17:19:51.199755+00:00,4.520000,-0.025080,
2025-11-12T17:19:51.204755+00:00,4.525000,-0.021660,
2025-11-12T17:19:51.209755+00:00,4.530000,-0.022420,
2025-11-12T17:19:51.214755+00:00,4.535000,-0.026220,
2025-11-12T17:19:51.219755+00:00,4.540000,-0.030020,
2025-11-12T17:19:51.224755+00:00,4.545000,-0.031160,
2025-11-12T17:19:51.229755+00:00,4.550000,-0.030400,
2025-11-12T17:19:51.234755+00:00,4.555000,-0.032300,
2025-11-12T17:19:51.239755+00:00,4.560000,-0.035340,
2025-11-12T17:19:51.244755+00:00,4.565000,-0.033820,
2025-11-12T17:19:51.249755+00:00,4.570000,-0.029260,
2025-11-12T17:19:51.254755+00:00,4.575000,-0.023180,
2025-11-12T17:19:51.259755+00:00,4.580000,-0.019380,
2025-11-12T17:19:51.264755+00:00,4.585000,-0.013680,
2025-11-12T17:19:51.269755+00:00,4.590000,-0.008360,
2025-11-12T17:19:51.274755+00:00,4.595000,-0.003800,
2025-11-12T17:19:51.279755+00:00,4.600000,-0.007220,
2025-11-12T17:19:51.284755+00:00,4.605000,-0.019000,
2025-11-12T17:19:51.289755+00:00,4.610000,-0.033060,
2025-11-12T17:19:51.294755+00:00,4.615000,-0.045600,
2025-11-12T17:19:51.299755+00:00,4.620000,-0.052060,
2025-11-12T17:19:51.304755+00:00,4.625000,-0.052060,
2025-11-12T17:19:51.309755+00:00,4.630000,-0.045220,
2025-11-12T17:19:51.314755+00:00,4.635000,-0.040660,
2025-11-12T17:19:51.319755+00:00,4.640000,-0.038760,
2025-11-12T17:19:51.324755+00:00,4.645000,-0.038760,
2025-11-12T17:19:51.329755+00:00,4.650000,-0.039140,
2025-11-12T17:19:51.334755+00:00,4.655000,-0.037620,
2025-11-12T17:19:51.339755+00:00,4.660000,-0.034580,
2025-11-12T17:19:51.344755+00:00,4.665000,-0.033060,
2025-11-12T17:19:51.349755+00:00,4.670000,-0.031920,
2025-11-12T17:19:51.354755+00:00,4.675000,-0.032300,
2025-11-12T17:19:51.359755+00:00,4.680000,-0.032680,
2025-11-12T17:19:51.364755+00:00,4.685000,-0.031540,
2025-11-12T17:19:51.369755+00:00,4.690000,-0.030020,
2025-11-12T17:19:51.374755+00:00,4.695000,-0.032300,
2025-11-12T17:19:51.379755+00:00,4.700000,-0.036100,
2025-11-12T17:19:51.384755+00:00,4.705000,-0.037240,
2025-11-12T17:19:51.389755+00:00,4.710000,-0.036100,
2025-11-12T17:19:51.394755+00:00,4.715000,-0.036860,
2025-11-12T17:19:51.399755+00:00,4.720000,-0.025460,
2025-11-12T17:19:51.404755+00:00,4.725000,0.023560,
2025-11-12T17:19:51.409755+00:00,4.730000,0.160360,
2025-11-12T17:19:51.414755+00:00,4.735000,0.435860,
2025-11-12T17:19:51.419755+00:00,4.740000,0.826880,
2025-11-12T17:19:51.424755+00:00,4.745000,1.127460,
2025-11-12T17:19:51.429755+00:00,4.750000,1.038160,
2025-11-12T17:19:51.434755+00:00,4.755000,0.471200,
2025-11-12T17:19:51.439755+00:00,4.760000,-0.285380,
2025-11-12T17:19:51.444755+00:00,4.765000,-0.796480,
2025-11-12T17:19:51.449755+00:00,4.770000,-0.879700,
2025-11-12T17:19:51.454755+00:00,4.775000,-0.699580,
2025-11-12T17:19:51.459755+00:00,4.780000,-0.508440,
2025-11-12T17:19:51.464755+00:00,4.785000,-0.399380,
2025-11-12T17:19:51.469755+00:00,4.790000,-0.331740,
2025-11-12T17:19:51.474755+00:00,4.795000,-0.267140,
2025-11-12T17:19:51.479755+00:00,4.800000,-0.209760,
2025-11-12T17:19:51.484755+00:00,4.805000,-0.164160,
2025-11-12T17:19:51.489755+00:00,4.810000,-0.131100,
2025-11-12T17:19:51.494755+00:00,4.815000,-0.103740,
2025-11-12T17:19:51.499755+00:00,4.820000,-0.081700,
2025-11-12T17:19:51.504755+00:00,4.825000,-0.061560,
2025-11-12T17:19:51.509755+00:00,4.830000,-0.048640,
2025-11-12T17:19:51.514755+00:00,4.835000,-0.041420,
2025-11-12T17:19:51.519755+00:00,4.840000,-0.038000,
2025-11-12T17:19:51.524755+00:00,4.845000,-0.033440,
2025-11-12T17:19:51.529755+00:00,4.850000,-0.025460,
2025-11-12T17:19:51.534755+00:00,4.855000,-0.017860,
2025-11-12T17:19:51.539755+00:00,4.860000,-0.015580,
2025-11-12T17:19:51.544755+00:00,4.865000,-0.015960,
2025-11-12T17:19:51.549755+00:00,4.870000,-0.016340,
2025-11-12T17:19:51.554755+00:00,4.875000,-0.014060,
2025-11-12T17:19:51.559755+00:00,4.880000,-0.010640,
2025-11-12T17:19:51.564755+00:00,4.885000,-0.009880,
2025-11-12T17:19:51.569755+00:00,4.890000,-0.009880,
2025-11-12T17:19:51.574755+00:00,4.895000,-0.008740,
2025-11-12T17:19:51.579755+00:00,4.900000,-0.003420,
2025-11-12T17:19:51.584755+00:00,4.905000,-0.000760,
2025-11-12T17:19:51.589755+00:00,4.910000,0.002660,
2025-11-12T17:19:51.594755+00:00,4.915000,0.001900,
2025-11-12T17:19:51.599755+00:00,4.920000,0.001520,
2025-11-12T17:19:51.604755+00:00,4.925000,0.001140,
2025-11-12T17:19:51.609755+00:00,4.930000,0.004180,
2025-11-12T17:19:51.614755+00:00,4.935000,0.009500,
2025-11-12T17:19:51.619755+00:00,4.940000,0.016720,
2025-11-12T17:19:51.624755+00:00,4.945000,0.024320,
2025-11-12T17:19:51.629755+00:00,4.950000,0.032680,
2025-11-12T17:19:51.634755+00:00,4.955000,0.037620,
2025-11-12T17:19:51.639755+00:00,4.960000,0.041800,
2025-11-12T17:19:51.644755+00:00,4.965000,0.041800,
2025-11-12T17:19:51.649755+00:00,4.970000,0.038380,
2025-11-12T17:19:51.654755+00:00,4.975000,0.031540,
2025-11-12T17:19:51.659755+00:00,4.980000,0.025840,
2025-11-12T17:19:51.664755+00:00,4.985000,0.017860,
2025-11-12T17:19:51.669755+00:00,4.990000,0.006840,
2025-11-12T17:19:51.674755+00:00,4.995000,-0.009500,
2025-11-12T17:19:51.679755+00:00,5.000000,-0.028500,
2025-11-12T17:19:51.684755+00:00,5.005000,-0.049020,
2025-11-12T17:19:51.689755+00:00,5.010000,-0.071440,
2025-11-12T17:19:51.694755+00:00,5.015000,-0.098040,
2025-11-12T17:19:51.699755+00:00,5.020000,-0.123120,
2025-11-12T17:19:51.704755+00:00,5.025000,-0.144780,
2025-11-12T17:19:51.709755+00:00,5.030000,-0.159600,
2025-11-12T17:19:51.714755+00:00,5.035000,-0.166440,
2025-11-12T17:19:51.719755+00:00,5.040000,-0.165300,
2025-11-12T17:19:51.724755+00:00,5.045000,-0.159220,
2025-11-12T17:19:51.729755+00:00,5.050000,-0.148200,
2025-11-12T17:19:51.734755+00:00,5.055000,-0.135280,
2025-11-12T17:19:51.739755+00:00,5.060000,-0.119700,
2025-11-12T17:19:51.744755+00:00,5.065000,-0.102600,
2025-11-12T17:19:51.749755+00:00,5.070000,-0.087400,
2025-11-12T17:19:51.754755+00:00,5.075000,-0.075240,
2025-11-12T17:19:51.759755+00:00,5.080000,-0.067260,
2025-11-12T17:19:51.764755+00:00,5.085000,-0.060040,
2025-11-12T17:19:51.769755+00:00,5.090000,-0.055100,
2025-11-12T17:19:51.774755+00:00,5.095000,-0.047880,
2025-11-12T17:19:51.779755+00:00,5.100000,-0.042940,
2025-11-12T17:19:51.784755+00:00,5.105000,-0.040280,
2025-11-12T17:19:51.789755+00:00,5.110000,-0.037240,
2025-11-12T17:19:51.794755+00:00,5.115000,-0.035340,
2025-11-12T17:19:51.799755+00:00,5.120000,-0.033820,
2025-11-12T17:19:51.804755+00:00,5.125000,-0.031920,
2025-11-12T17:19:51.809755+00:00,5.130000,-0.029260,
2025-11-12T17:19:51.814755+00:00,5.135000,-0.028120,
2025-11-12T17:19:51.819755+00:00,5.140000,-0.028500,
2025-11-12T17:19:51.824755+00:00,5.145000,-0.030020,
2025-11-12T17:19:51.829755+00:00,5.150000,-0.031160,
2025-11-12T17:19:51.834755+00:00,5.155000,-0.028500,
2025-11-12T17:19:51.839755+00:00,5.160000,-0.025080,
2025-11-12T17:19:51.844755+00:00,5.165000,-0.024700,
2025-11-12T17:19:51.849755+00:00,5.170000,-0.025080,
2025-11-12T17:19:51.854755+00:00,5.175000,-0.025840,
2025-11-12T17:19:51.859755+00:00,5.180000,-0.026600,
2025-11-12T17:19:51.864755+00:00,5.185000,-0.026980,
2025-11-12T17:19:51.869755+00:00,5.190000,-0.028500,
2025-11-12T17:19:51.874755+00:00,5.195000,-0.029260,
2025-11-12T17:19:51.879755+00:00,5.200000,-0.029260,
2025-11-12T17:19:51.884755+00:00,5.205000,-0.029260,
2025-11-12T17:19:51.889755+00:00,5.210000,-0.030780,
2025-11-12T17:19:51.894755+00:00,5.215000,-0.031160,
2025-11-12T17:19:51.899755+00:00,5.220000,-0.032680,
2025-11-12T17:19:51.904755+00:00,5.225000,-0.032680,
2025-11-12T17:19:51.909755+00:00,5.230000,-0.030780,
2025-11-12T17:19:51.914755+00:00,5.235000,-0.030400,
2025-11-12T17:19:51.919755+00:00,5.240000,-0.032300,
2025-11-12T17:19:51.924755+00:00,5.245000,-0.033060,
2025-11-12T17:19:51.929755+00:00,5.250000,-0.032680,
2025-11-12T17:19:51.934755+00:00,5.255000,-0.031160,
2025-11-12T17:19:51.939755+00:00,5.260000,-0.029640,
2025-11-12T17:19:51.944755+00:00,5.265000,-0.027740,
2025-11-12T17:19:51.949755+00:00,5.270000,-0.027740,
2025-11-12T17:19:51.954755+00:00,5.275000,-0.029260,
2025-11-12T17:19:51.959755+00:00,5.280000,-0.030780,
2025-11-12T17:19:51.964755+00:00,5.285000,-0.030400,
2025-11-12T17:19:51.969755+00:00,5.290000,-0.030020,
2025-11-12T17:19:51.974755+00:00,5.295000,-0.029640,
2025-11-12T17:19:51.979755+00:00,5.300000,-0.029640,
2025-11-12T17:19:51.984755+00:00,5.305000,-0.029260,
2025-11-12T17:19:51.989755+00:00,5.310000,-0.027360,
2025-11-12T17:19:51.994755+00:00,5.315000,-0.025460,
2025-11-12T17:19:51.999755+00:00,5.320000,-0.026220,
2025-11-12T17:19:52.004755+00:00,5.325000,-0.028120,
2025-11-12T17:19:52.009755+00:00,5.330000,-0.030400,
2025-11-12T17:19:52.014755+00:00,5.335000,-0.030780,
2025-11-12T17:19:52.019755+00:00,5.340000,-0.028880,
2025-11-12T17:19:52.024755+00:00,5.345000,-0.026980,
2025-11-12T17:19:52.029755+00:00,5.350000,-0.025460,
2025-11-12T17:19:52.034755+00:00,5.355000,-0.024320,
2025-11-12T17:19:52.039755+00:00,5.360000,-0.025080,
2025-11-12T17:19:52.044755+00:00,5.365000,-0.025080,
2025-11-12T17:19:52.049755+00:00,5.370000,-0.026600,
2025-11-12T17:19:52.054755+00:00,5.375000,-0.027360,
2025-11-12T17:19:52.059755+00:00,5.380000,-0.028120,
2025-11-12T17:19:52.064755+00:00,5.385000,-0.027740,
2025-11-12T17:19:52.069755+00:00,5.390000,-0.025460,
2025-11-12T17:19:52.074755+00:00,5.395000,-0.025460,
2025-11-12T17:19:52.079755+00:00,5.400000,-0.027740,
2025-11-12T17:19:52.084755+00:00,5.405000,-0.030400,
2025-11-12T17:19:52.089755+00:00,5.410000,-0.030780,
2025-11-12T17:19:52.094755+00:00,5.415000,-0.028500,
2025-11-12T17:19:52.099755+00:00,5.420000,-0.025080,
2025-11-12T17:19:52.104755+00:00,5.425000,-0.022420,
2025-11-12T17:19:52.109755+00:00,5.430000,-0.025080,
2025-11-12T17:19:52.114755+00:00,5.435000,-0.029260,
2025-11-12T17:19:52.119755+00:00,5.440000,-0.028500,
2025-11-12T17:19:52.124755+00:00,5.445000,-0.019000,
2025-11-12T17:19:52.129755+00:00,5.450000,-0.005700,
2025-11-12T17:19:52.134755+00:00,5.455000,-0.000760,
2025-11-12T17:19:52.139755+00:00,5.460000,-0.009880,
2025-11-12T17:19:52.144755+00:00,5.465000,-0.026220,
2025-11-12T17:19:52.149755+00:00,5.470000,-0.041040,
2025-11-12T17:19:52.154755+00:00,5.475000,-0.050160,
2025-11-12T17:19:52.159755+00:00,5.480000,-0.051680,
2025-11-12T17:19:52.164755+00:00,5.485000,-0.046360,
2025-11-12T17:19:52.169755+00:00,5.490000,-0.039900,
2025-11-12T17:19:52.174755+00:00,5.495000,-0.034960,
2025-11-12T17:19:52.179755+00:00,5.500000,-0.033440,
2025-11-12T17:19:52.184755+00:00,5.505000,-0.032300,
2025-11-12T17:19:52.189755+00:00,5.510000,-0.034580,
2025-11-12T17:19:52.194755+00:00,5.515000,-0.036100,
2025-11-12T17:19:52.199755+00:00,5.520000,-0.035340,
2025-11-12T17:19:52.204755+00:00,5.525000,-0.031160,
2025-11-12T17:19:52.209755+00:00,5.530000,-0.027740,
2025-11-12T17:19:52.214755+00:00,5.535000,-0.029260,
2025-11-12T17:19:52.219755+00:00,5.540000,-0.033440,
2025-11-12T17:19:52.224755+00:00,5.545000,-0.034200,
2025-11-12T17:19:52.229755+00:00,5.550000,-0.034200,
2025-11-12T17:19:52.234755+00:00,5.555000,-0.034960,
2025-11-12T17:19:52.239755+00:00,5.560000,-0.035340,
2025-11-12T17:19:52.244755+00:00,5.565000,-0.034580,
2025-11-12T17:19:52.249755+00:00,5.570000,-0.026980,
2025-11-12T17:19:52.254755+00:00,5.575000,0.000760,
2025-11-12T17:19:52.259755+00:00,5.580000,0.061180,
2025-11-12T17:19:52.264755+00:00,5.585000,0.183160,
2025-11-12T17:19:52.269755+00:00,5.590000,0.415720,
2025-11-12T17:19:52.274755+00:00,5.595000,0.754300,
2025-11-12T17:19:52.279755+00:00,5.600000,1.017640,
2025-11-12T17:19:52.284755+00:00,5.605000,0.926060,
2025-11-12T17:19:52.289755+00:00,5.610000,0.400520,
2025-11-12T17:19:52.294755+00:00,5.615000,-0.289560,
2025-11-12T17:19:52.299755+00:00,5.620000,-0.743280,
2025-11-12T17:19:52.304755+00:00,5.625000,-0.804080,
2025-11-12T17:19:52.309755+00:00,5.630000,-0.633080,
2025-11-12T17:19:52.314755+00:00,5.635000,-0.461700,
2025-11-12T17:19:52.319755+00:00,5.640000,-0.366320,
2025-11-12T17:19:52.324755+00:00,5.645000,-0.306660,
2025-11-12T17:19:52.329755+00:00,5.650000,-0.250800,
2025-11-12T17:19:52.334755+00:00,5.655000,-0.199880,
2025-11-12T17:19:52.339755+00:00,5.660000,-0.156940,
2025-11-12T17:19:52.344755+00:00,5.665000,-0.124260,
2025-11-12T17:19:52.349755+00:00,5.670000,-0.098040,
2025-11-12T17:19:52.354755+00:00,5.675000,-0.078660,
2025-11-12T17:19:52.359755+00:00,5.680000,-0.064600,
2025-11-12T17:19:52.364755+00:00,5.685000,-0.052440,
2025-11-12T17:19:52.369755+00:00,5.690000,-0.041040,
2025-11-12T17:19:52.374755+00:00,5.695000,-0.033060,
2025-11-12T17:19:52.379755+00:00,5.700000,-0.028120,
2025-11-12T17:19:52.384755+00:00,5.705000,-0.025460,
2025-11-12T17:19:52.389755+00:00,5.710000,-0.023560,
2025-11-12T17:19:52.394755+00:00,5.715000,-0.019000,
2025-11-12T17:19:52.399755+00:00,5.720000,-0.014440,
2025-11-12T17:19:52.404755+00:00,5.725000,-0.010640,
2025-11-12T17:19:52.409755+00:00,5.730000,-0.008360,
2025-11-12T17:19:52.414755+00:00,5.735000,-0.008740,
2025-11-12T17:19:52.419755+00:00,5.740000,-0.009120,
2025-11-12T17:19:52.424755+00:00,5.745000,-0.007600,
2025-11-12T17:19:52.429755+00:00,5.750000,-0.006080,
2025-11-12T17:19:52.434755+00:00,5.755000,-0.005320,
2025-11-12T17:19:52.439755+00:00,5.760000,-0.004180,
2025-11-12T17:19:52.444755+00:00,5.765000,-0.006080,
2025-11-12T17:19:52.449755+00:00,5.770000,-0.002660,
2025-11-12T17:19:52.454755+00:00,5.775000,0.002280,
2025-11-12T17:19:52.459755+00:00,5.780000,0.009880,
2025-11-12T17:19:52.464755+00:00,5.785000,0.017100,
2025-11-12T17:19:52.469755+00:00,5.790000,0.022420,
2025-11-12T17:19:52.474755+00:00,5.795000,0.024700,
2025-11-12T17:19:52.479755+00:00,5.800000,0.027360,
2025-11-12T17:19:52.484755+00:00,5.805000,0.032680,
2025-11-12T17:19:52.489755+00:00,5.810000,0.040660,
2025-11-12T17:19:52.494755+00:00,5.815000,0.047120,
2025-11-12T17:19:52.499755+00:00,5.820000,0.049400,
2025-11-12T17:19:52.504755+00:00,5.825000,0.045980,
2025-11-12T17:19:52.509755+00:00,5.830000,0.039140,
2025-11-12T17:19:52.514755+00:00,5.835000,0.029640,
2025-11-12T17:19:52.519755+00:00,5.840000,0.018620,
2025-11-12T17:19:52.524755+00:00,5.845000,0.007600,
2025-11-12T17:19:52.529755+00:00,5.850000,-0.005700,
2025-11-12T17:19:52.534755+00:00,5.855000,-0.026220,
2025-11-12T17:19:52.539755+00:00,5.860000,-0.054720,
2025-11-12T17:19:52.544755+00:00,5.865000,-0.086260,
2025-11-12T17:19:52.549755+00:00,5.870000,-0.116280,
2025-11-12T17:19:52.554755+00:00,5.875000,-0.143260,
2025-11-12T17:19:52.559755+00:00,5.880000,-0.163400,
2025-11-12T17:19:52.564755+00:00,5.885000,-0.176320,
2025-11-12T17:19:52.569755+00:00,5.890000,-0.179740,
2025-11-12T17:19:52.574755+00:00,5.895000,-0.177460,
2025-11-12T17:19:52.579755+00:00,5.900000,-0.169100,
2025-11-12T17:19:52.584755+00:00,5.905000,-0.154280,
2025-11-12T17:19:52.589755+00:00,5.910000,-0.135280,
2025-11-12T17:19:52.594755+00:00,5.915000,-0.117420,
2025-11-12T17:19:52.599755+00:00,5.920000,-0.103740,
2025-11-12T17:19:52.604755+00:00,5.925000,-0.090060,
2025-11-12T17:19:52.609755+00:00,5.930000,-0.077900,
2025-11-12T17:19:52.614755+00:00,5.935000,-0.068020,
2025-11-12T17:19:52.619755+00:00,5.940000,-0.060040,
2025-11-12T17:19:52.624755+00:00,5.945000,-0.054340,
2025-11-12T17:19:52.629755+00:00,5.950000,-0.049780,
2025-11-12T17:19:52.634755+00:00,5.955000,-0.044840,
2025-11-12T17:19:52.639755+00:00,5.960000,-0.041420,
2025-11-12T17:19:52.644755+00:00,5.965000,-0.034580,
2025-11-12T17:19:52.649755+00:00,5.970000,-0.030400,
2025-11-12T17:19:52.654755+00:00,5.975000,-0.028500,
2025-11-12T17:19:52.659755+00:00,5.980000,-0.028880,
2025-11-12T17:19:52.664755+00:00,5.985000,-0.026980,
2025-11-12T17:19:52.669755+00:00,5.990000,-0.023560,
2025-11-12T17:19:52.674755+00:00,5.995000,-0.020900,
2025-11-12T17:19:52.679755+00:00,6.000000,-0.020140,
2025-11-12T17:19:52.684755+00:00,6.005000,-0.022040,
2025-11-12T17:19:52.689755+00:00,6.010000,-0.024700,
2025-11-12T17:19:52.694755+00:00,6.015000,-0.024700,
2025-11-12T17:19:52.699755+00:00,6.020000,-0.023940,
2025-11-12T17:19:52.704755+00:00,6.025000,-0.023180,
2025-11-12T17:19:52.709755+00:00,6.030000,-0.022800,
2025-11-12T17:19:52.714755+00:00,6.035000,-0.025080,
2025-11-12T17:19:52.719755+00:00,6.040000,-0.028120,
2025-11-12T17:19:52.724755+00:00,6.045000,-0.030780,
2025-11-12T17:19:52.729755+00:00,6.050000,-0.030020,
2025-11-12T17:19:52.734755+00:00,6.055000,-0.028120,
2025-11-12T17:19:52.739755+00:00,6.060000,-0.028120,
2025-11-12T17:19:52.744755+00:00,6.065000,-0.031160,
2025-11-12T17:19:52.749755+00:00,6.070000,-0.033440,
2025-11-12T17:19:52.754755+00:00,6.075000,-0.034960,
2025-11-12T17:19:52.759755+00:00,6.080000,-0.034960,
2025-11-12T17:19:52.764755+00:00,6.085000,-0.035340,
2025-11-12T17:19:52.769755+00:00,6.090000,-0.035340,
2025-11-12T17:19:52.774755+00:00,6.095000,-0.034200,
2025-11-12T17:19:52.779755+00:00,6.100000,-0.031920,
2025-11-12T17:19:52.784755+00:00,6.105000,-0.031920,
2025-11-12T17:19:52.789755+00:00,6.110000,-0.034960,
2025-11-12T17:19:52.794755+00:00,6.115000,-0.036480,
2025-11-12T17:19:52.799755+00:00,6.120000,-0.036860,
2025-11-12T17:19:52.804755+00:00,6.125000,-0.034580,
2025-11-12T17:19:52.809755+00:00,6.130000,-0.031160,
2025-11-12T17:19:52.814755+00:00,6.135000,-0.029260,
2025-11-12T17:19:52.819755+00:00,6.140000,-0.029640,
2025-11-12T17:19:52.824755+00:00,6.145000,-0.030780,
2025-11-12T17:19:52.829755+00:00,6.150000,-0.031160,
2025-11-12T17:19:52.834755+00:00,6.155000,-0.030020,
2025-11-12T17:19:52.839755+00:00,6.160000,-0.028880,
2025-11-12T17:19:52.844755+00:00,6.165000,-0.028880,
2025-11-12T17:19:52.849755+00:00,6.170000,-0.030020,
2025-11-12T17:19:52.854755+00:00,6.175000,-0.031540,
2025-11-12T17:19:52.859755+00:00,6.180000,-0.032300,
2025-11-12T17:19:52.864755+00:00,6.185000,-0.032300,
2025-11-12T17:19:52.869755+00:00,6.190000,-0.030400,
2025-11-12T17:19:52.874755+00:00,6.195000,-0.027740,
2025-11-12T17:19:52.879755+00:00,6.200000,-0.027740,
2025-11-12T17:19:52.884755+00:00,6.205000,-0.028500,
2025-11-12T17:19:52.889755+00:00,6.210000,-0.028120,
2025-11-12T17:19:52.894755+00:00,6.215000,-0.027740,
2025-11-12T17:19:52.899755+00:00,6.220000,-0.029260,
2025-11-12T17:19:52.904755+00:00,6.225000,-0.032680,
2025-11-12T17:19:52.909755+00:00,6.230000,-0.032680,
2025-11-12T17:19:52.914755+00:00,6.235000,-0.029260,
2025-11-12T17:19:52.919755+00:00,6.240000,-0.025460,
2025-11-12T17:19:52.924755+00:00,6.245000,-0.026980,
2025-11-12T17:19:52.929755+00:00,6.250000,-0.033060,
2025-11-12T17:19:52.934755+00:00,6.255000,-0.034960,
2025-11-12T17:19:52.939755+00:00,6.260000,-0.030780,
2025-11-12T17:19:52.944755+00:00,6.265000,-0.026600,
2025-11-12T17:19:52.949755+00:00,6.270000,-0.025460,
2025-11-12T17:19:52.954755+00:00,6.275000,-0.024700,
2025-11-12T17:19:52.959755+00:00,6.280000,-0.018240,
2025-11-12T17:19:52.964755+00:00,6.285000,-0.008360,
2025-11-12T17:19:52.969755+00:00,6.290000,-0.003040,
2025-11-12T17:19:52.974755+00:00,6.295000,-0.007980,
2025-11-12T17:19:52.979755+00:00,6.300000,-0.021280,
2025-11-12T17:19:52.984755+00:00,6.305000,-0.035720,
2025-11-12T17:19:52.989755+00:00,6.310000,-0.045220,
2025-11-12T17:19:52.994755+00:00,6.315000,-0.048260,
2025-11-12T17:19:52.999755+00:00,6.320000,-0.046360,
2025-11-12T17:19:53.004755+00:00,6.325000,-0.041800,
2025-11-12T17:19:53.009755+00:00,6.330000,-0.039520,
2025-11-12T17:19:53.014755+00:00,6.335000,-0.038380,
2025-11-12T17:19:53.019755+00:00,6.340000,-0.036480,
2025-11-12T17:19:53.024755+00:00,6.345000,-0.034200,
2025-11-12T17:19:53.029755+00:00,6.350000,-0.031920,
2025-11-12T17:19:53.034755+00:00,6.355000,-0.031540,
2025-11-12T17:19:53.039755+00:00,6.360000,-0.033060,
2025-11-12T17:19:53.044755+00:00,6.365000,-0.033820,
2025-11-12T17:19:53.049755+00:00,6.370000,-0.034200,
2025-11-12T17:19:53.054755+00:00,6.375000,-0.033440,
2025-11-12T17:19:53.059755+00:00,6.380000,-0.031920,
2025-11-12T17:19:53.064755+00:00,6.385000,-0.033060,
2025-11-12T17:19:53.069755+00:00,6.390000,-0.032680,
2025-11-12T17:19:53.074755+00:00,6.395000,-0.030400,
2025-11-12T17:19:53.079755+00:00,6.400000,-0.031160,
2025-11-12T17:19:53.084755+00:00,6.405000,-0.034580,
2025-11-12T17:19:53.089755+00:00,6.410000,-0.025460,
2025-11-12T17:19:53.094755+00:00,6.415000,0.031160,
2025-11-12T17:19:53.099755+00:00,6.420000,0.183160,
2025-11-12T17:19:53.104755+00:00,6.425000,0.469300,
2025-11-12T17:19:53.109755+00:00,6.430000,0.852340,
2025-11-12T17:19:53.114755+00:00,6.435000,1.125560,
2025-11-12T17:19:53.119755+00:00,6.440000,1.003200,
2025-11-12T17:19:53.124755+00:00,6.445000,0.418760,
2025-11-12T17:19:53.129755+00:00,6.450000,-0.327560,
2025-11-12T17:19:53.134755+00:00,6.455000,-0.810540,
2025-11-12T17:19:53.139755+00:00,6.460000,-0.870200,
2025-11-12T17:19:53.144755+00:00,6.465000,-0.683240,
2025-11-12T17:19:53.149755+00:00,6.470000,-0.495900,
2025-11-12T17:19:53.154755+00:00,6.475000,-0.391400,
2025-11-12T17:19:53.159755+00:00,6.480000,-0.325660,
2025-11-12T17:19:53.164755+00:00,6.485000,-0.261820,
2025-11-12T17:19:53.169755+00:00,6.490000,-0.207100,
2025-11-12T17:19:53.174755+00:00,6.495000,-0.162640,
2025-11-12T17:19:53.179755+00:00,6.500000,-0.128060,
2025-11-12T17:19:53.184755+00:00,6.505000,-0.099560,
2025-11-12T17:19:53.189755+00:00,6.510000,-0.078660,
2025-11-12T17:19:53.194755+00:00,6.515000,-0.062320,
2025-11-12T17:19:53.199755+00:00,6.520000,-0.049400,
2025-11-12T17:19:53.204755+00:00,6.525000,-0.039520,
2025-11-12T17:19:53.209755+00:00,6.530000,-0.033820,
2025-11-12T17:19:53.214755+00:00,6.535000,-0.028500,
2025-11-12T17:19:53.219755+00:00,6.540000,-0.024700,
2025-11-12T17:19:53.224755+00:00,6.545000,-0.021280,
2025-11-12T17:19:53.229755+00:00,6.550000,-0.018620,
2025-11-12T17:19:53.234755+00:00,6.555000,-0.015960,
2025-11-12T17:19:53.239755+00:00,6.560000,-0.015580,
2025-11-12T17:19:53.244755+00:00,6.565000,-0.015580,
2025-11-12T17:19:53.249755+00:00,6.570000,-0.014060,
2025-11-12T17:19:53.254755+00:00,6.575000,-0.011020,
2025-11-12T17:19:53.259755+00:00,6.580000,-0.007220,
2025-11-12T17:19:53.264755+00:00,6.585000,-0.005700,
2025-11-12T17:19:53.269755+00:00,6.590000,-0.005320,
2025-11-12T17:19:53.274755+00:00,6.595000,-0.003800,
2025-11-12T17:19:53.279755+00:00,6.600000,-0.001140,
2025-11-12T17:19:53.284755+00:00,6.605000,0.001520,
2025-11-12T17:19:53.289755+00:00,6.610000,0.004560,
2025-11-12T17:19:53.294755+00:00,6.615000,0.007600,
2025-11-12T17:19:53.299755+00:00,6.620000,0.011780,
2025-11-12T17:19:53.304755+00:00,6.625000,0.014440,
2025-11-12T17:19:53.309755+00:00,6.630000,0.018620,
2025-11-12T17:19:53.314755+00:00,6.635000,0.023560,
2025-11-12T17:19:53.319755+00:00,6.640000,0.030020,
2025-11-12T17:19:53.324755+00:00,6.645000,0.036860,
2025-11-12T17:19:53.329755+00:00,6.650000,0.041420,
2025-11-12T17:19:53.334755+00:00,6.655000,0.041420,
2025-11-12T17:19:53.339755+00:00,6.660000,0.038380,
2025-11-12T17:19:53.344755+00:00,6.665000,0.033060,
2025-11-12T17:19:53.349755+00:00,6.670000,0.027360,
2025-11-12T17:19:53.354755+00:00,6.675000,0.020900,
2025-11-12T17:19:53.359755+00:00,6.680000,0.012160,
2025-11-12T17:19:53.364755+00:00,6.685000,-0.002660,
2025-11-12T17:19:53.369755+00:00,6.690000,-0.025080,
2025-11-12T17:19:53.374755+00:00,6.695000,-0.052440,
2025-11-12T17:19:53.379755+00:00,6.700000,-0.083600,
2025-11-12T17:19:53.384755+00:00,6.705000,-0.114000,
2025-11-12T17:19:53.389755+00:00,6.710000,-0.139080,
2025-11-12T17:19:53.394755+00:00,6.715000,-0.156940,
2025-11-12T17:19:53.399755+00:00,6.720000,-0.166440,
2025-11-12T17:19:53.404755+00:00,6.725000,-0.168720,
2025-11-12T17:19:53.409755+00:00,6.730000,-0.164920,
2025-11-12T17:19:53.414755+00:00,6.735000,-0.155040,
2025-11-12T17:19:53.419755+00:00,6.740000,-0.143260,
2025-11-12T17:19:53.424755+00:00,6.745000,-0.129200,
2025-11-12T17:19:53.429755+00:00,6.750000,-0.113240,
2025-11-12T17:19:53.434755+00:00,6.755000,-0.099180,
2025-11-12T17:19:53.439755+00:00,6.760000,-0.088920,
2025-11-12T17:19:53.444755+00:00,6.765000,-0.079800,
2025-11-12T17:19:53.449755+00:00,6.770000,-0.070680,
2025-11-12T17:19:53.454755+00:00,6.775000,-0.060420,
2025-11-12T17:19:53.459755+00:00,6.780000,-0.051680,
2025-11-12T17:19:53.464755+00:00,6.785000,-0.044840,
2025-11-12T17:19:53.469755+00:00,6.790000,-0.040660,
2025-11-12T17:19:53.474755+00:00,6.795000,-0.039900,
2025-11-12T17:19:53.479755+00:00,6.800000,-0.037620,
2025-11-12T17:19:53.484755+00:00,6.805000,-0.033820,
2025-11-12T17:19:53.489755+00:00,6.810000,-0.031920,
2025-11-12T17:19:53.494755+00:00,6.815000,-0.030400,
2025-11-12T17:19:53.499755+00:00,6.820000,-0.028500,
2025-11-12T17:19:53.504755+00:00,6.825000,-0.026600,
2025-11-12T17:19:53.509755+00:00,6.830000,-0.023940,
2025-11-12T17:19:53.514755+00:00,6.835000,-0.025460,
2025-11-12T17:19:53.519755+00:00,6.840000,-0.025460,
2025-11-12T17:19:53.524755+00:00,6.845000,-0.025840,
2025-11-12T17:19:53.529755+00:00,6.850000,-0.025460,
2025-11-12T17:19:53.534755+00:00,6.855000,-0.026980,
2025-11-12T17:19:53.539755+00:00,6.860000,-0.028880,
2025-11-12T17:19:53.544755+00:00,6.865000,-0.028880,
2025-11-12T17:19:53.549755+00:00,6.870000,-0.028500,
2025-11-12T17:19:53.554755+00:00,6.875000,-0.029260,
2025-11-12T17:19:53.559755+00:00,6.880000,-0.030400,
2025-11-12T17:19:53.564755+00:00,6.885000,-0.031920,
2025-11-12T17:19:53.569755+00:00,6.890000,-0.031160,
2025-11-12T17:19:53.574755+00:00,6.895000,-0.028120,
2025-11-12T17:19:53.579755+00:00,6.900000,-0.025840,
2025-11-12T17:19:53.584755+00:00,6.905000,-0.026220,
2025-11-12T17:19:53.589755+00:00,6.910000,-0.029260,
2025-11-12T17:19:53.594755+00:00,6.915000,-0.032300,
2025-11-12T17:19:53.599755+00:00,6.920000,-0.032300,
2025-11-12T17:19:53.604755+00:00,6.925000,-0.030780,
2025-11-12T17:19:53.609755+00:00,6.930000,-0.031160,
2025-11-12T17:19:53.614755+00:00,6.935000,-0.031540,
2025-11-12T17:19:53.619755+00:00,6.940000,-0.032680,
2025-11-12T17:19:53.624755+00:00,6.945000,-0.031920,
2025-11-12T17:19:53.629755+00:00,6.950000,-0.030780,
2025-11-12T17:19:53.634755+00:00,6.955000,-0.029260,
2025-11-12T17:19:53.639755+00:00,6.960000,-0.030400,
2025-11-12T17:19:53.644755+00:00,6.965000,-0.031160,
2025-11-12T17:19:53.649755+00:00,6.970000,-0.029640,
2025-11-12T17:19:53.654755+00:00,6.975000,-0.027740,
2025-11-12T17:19:53.659755+00:00,6.980000,-0.027740,
2025-11-12T17:19:53.664755+00:00,6.985000,-0.030400,
2025-11-12T17:19:53.669755+00:00,6.990000,-0.032680,
2025-11-12T17:19:53.674755+00:00,6.995000,-0.032680,
2025-11-12T17:19:53.679755+00:00,7.000000,-0.029640,
2025-11-12T17:19:53.684755+00:00,7.005000,-0.026220,
2025-11-12T17:19:53.689755+00:00,7.010000,-0.024320,
2025-11-12T17:19:53.694755+00:00,7.015000,-0.026220,
2025-11-12T17:19:53.699755+00:00,7.020000,-0.029640,
2025-11-12T17:19:53.704755+00:00,7.025000,-0.031540,
2025-11-12T17:19:53.709755+00:00,7.030000,-0.030020,
2025-11-12T17:19:53.714755+00:00,7.035000,-0.028500,
2025-11-12T17:19:53.719755+00:00,7.040000,-0.026220,
2025-11-12T17:19:53.724755+00:00,7.045000,-0.026600,
2025-11-12T17:19:53.729755+00:00,7.050000,-0.028120,
2025-11-12T17:19:53.734755+00:00,7.055000,-0.029260,
2025-11-12T17:19:53.739755+00:00,7.060000,-0.027740,
2025-11-12T17:19:53.744755+00:00,7.065000,-0.026220,
2025-11-12T17:19:53.749755+00:00,7.070000,-0.025460,
2025-11-12T17:19:53.754755+00:00,7.075000,-0.027740,
2025-11-12T17:19:53.759755+00:00,7.080000,-0.030400,
2025-11-12T17:19:53.764755+00:00,7.085000,-0.031160,
2025-11-12T17:19:53.769755+00:00,7.090000,-0.029640,
2025-11-12T17:19:53.774755+00:00,7.095000,-0.028120,
2025-11-12T17:19:53.779755+00:00,7.100000,-0.028500,
2025-11-12T17:19:53.784755+00:00,7.105000,-0.028500,
2025-11-12T17:19:53.789755+00:00,7.110000,-0.028120,
2025-11-12T17:19:53.794755+00:00,7.115000,-0.027360,
2025-11-12T17:19:53.799755+00:00,7.120000,-0.028120,
2025-11-12T17:19:53.804755+00:00,7.125000,-0.028500,
2025-11-12T17:19:53.809755+00:00,7.130000,-0.026600,
2025-11-12T17:19:53.814755+00:00,7.135000,-0.026220,
2025-11-12T17:19:53.819755+00:00,7.140000,-0.024700,
2025-11-12T17:19:53.824755+00:00,7.145000,-0.025840,
2025-11-12T17:19:53.829755+00:00,7.150000,-0.026220,
2025-11-12T17:19:53.834755+00:00,7.155000,-0.026980,
2025-11-12T17:19:53.839755+00:00,7.160000,-0.026980,
2025-11-12T17:19:53.844755+00:00,7.165000,-0.029260,
2025-11-12T17:19:53.849755+00:00,7.170000,-0.031920,
2025-11-12T17:19:53.854755+00:00,7.175000,-0.034960,
2025-11-12T17:19:53.859755+00:00,7.180000,-0.033440,
2025-11-12T17:19:53.864755+00:00,7.185000,-0.027360,
2025-11-12T17:19:53.869755+00:00,7.190000,-0.020140,
2025-11-12T17:19:53.874755+00:00,7.195000,-0.014820,
2025-11-12T17:19:53.879755+00:00,7.200000,-0.010260,
2025-11-12T17:19:53.884755+00:00,7.205000,-0.005700,
2025-11-12T17:19:53.889755+00:00,7.210000,-0.003420,
2025-11-12T17:19:53.894755+00:00,7.215000,-0.007980,
2025-11-12T17:19:53.899755+00:00,7.220000,-0.021280,
2025-11-12T17:19:53.904755+00:00,7.225000,-0.036100,
2025-11-12T17:19:53.909755+00:00,7.230000,-0.044840,
2025-11-12T17:19:53.914755+00:00,7.235000,-0.047880,
2025-11-12T17:19:53.919755+00:00,7.240000,-0.047880,
2025-11-12T17:19:53.924755+00:00,7.245000,-0.044840,
2025-11-12T17:19:53.929755+00:00,7.250000,-0.041420,
2025-11-12T17:19:53.934755+00:00,7.255000,-0.036860,
2025-11-12T17:19:53.939755+00:00,7.260000,-0.033820,
2025-11-12T17:19:53.944755+00:00,7.265000,-0.034200,
2025-11-12T17:19:53.949755+00:00,7.270000,-0.035340,
2025-11-12T17:19:53.954755+00:00,7.275000,-0.033440,
2025-11-12T17:19:53.959755+00:00,7.280000,-0.031540,
2025-11-12T17:19:53.964755+00:00,7.285000,-0.030400,
2025-11-12T17:19:53.969755+00:00,7.290000,-0.030400,
2025-11-12T17:19:53.974755+00:00,7.295000,-0.030780,
2025-11-12T17:19:53.979755+00:00,7.300000,-0.028880,
2025-11-12T17:19:53.984755+00:00,7.305000,-0.030020,
2025-11-12T17:19:53.989755+00:00,7.310000,-0.034580,
2025-11-12T17:19:53.994755+00:00,7.315000,-0.036860,
2025-11-12T17:19:53.999755+00:00,7.320000,-0.034960,
2025-11-12T17:19:54.004755+00:00,7.325000,-0.035340,
2025-11-12T17:19:54.009755+00:00,7.330000,-0.037620,
2025-11-12T17:19:54.014755+00:00,7.335000,-0.022420,
2025-11-12T17:19:54.019755+00:00,7.340000,0.052060,
2025-11-12T17:19:54.024755+00:00,7.345000,0.235980,
2025-11-12T17:19:54.029755+00:00,7.350000,0.564300,
2025-11-12T17:19:54.034755+00:00,7.355000,0.959880,
2025-11-12T17:19:54.039755+00:00,7.360000,1.175340,
2025-11-12T17:19:54.044755+00:00,7.365000,0.942020,
2025-11-12T17:19:54.049755+00:00,7.370000,0.272460,
2025-11-12T17:19:54.054755+00:00,7.375000,-0.469680,
2025-11-12T17:19:54.059755+00:00,7.380000,-0.879700,
2025-11-12T17:19:54.064755+00:00,7.385000,-0.870960,
2025-11-12T17:19:54.069755+00:00,7.390000,-0.661960,
2025-11-12T17:19:54.074755+00:00,7.395000,-0.482600,
2025-11-12T17:19:54.079755+00:00,7.400000,-0.385700,
2025-11-12T17:19:54.084755+00:00,7.405000,-0.320340,
2025-11-12T17:19:54.089755+00:00,7.410000,-0.258020,
2025-11-12T17:19:54.094755+00:00,7.415000,-0.203300,
2025-11-12T17:19:54.099755+00:00,7.420000,-0.159600,
2025-11-12T17:19:54.104755+00:00,7.425000,-0.125780,
2025-11-12T17:19:54.109755+00:00,7.430000,-0.099560,
2025-11-12T17:19:54.114755+00:00,7.435000,-0.079040,
2025-11-12T17:19:54.119755+00:00,7.440000,-0.063460,
2025-11-12T17:19:54.124755+00:00,7.445000,-0.052060,
2025-11-12T17:19:54.129755+00:00,7.450000,-0.043320,
2025-11-12T17:19:54.134755+00:00,7.455000,-0.036480,
2025-11-12T17:19:54.139755+00:00,7.460000,-0.030780,
2025-11-12T17:19:54.144755+00:00,7.465000,-0.025840,
2025-11-12T17:19:54.149755+00:00,7.470000,-0.019000,
2025-11-12T17:19:54.154755+00:00,7.475000,-0.016720,
2025-11-12T17:19:54.159755+00:00,7.480000,-0.015960,
2025-11-12T17:19:54.164755+00:00,7.485000,-0.012920,
2025-11-12T17:19:54.169755+00:00,7.490000,-0.010260,
2025-11-12T17:19:54.174755+00:00,7.495000,-0.007220,
2025-11-12T17:19:54.179755+00:00,7.500000,-0.006840,
2025-11-12T17:19:54.184755+00:00,7.505000,-0.005320,
2025-11-12T17:19:54.189755+00:00,7.510000,-0.006080,
2025-11-12T17:19:54.194755+00:00,7.515000,-0.006460,
2025-11-12T17:19:54.199755+00:00,7.520000,-0.006840,
2025-11-12T17:19:54.204755+00:00,7.525000,-0.005700,
2025-11-12T17:19:54.209755+00:00,7.530000,-0.002660,
2025-11-12T17:19:54.214755+00:00,7.535000,0.000760,
2025-11-12T17:19:54.219755+00:00,7.540000,0.002280,
2025-11-12T17:19:54.224755+00:00,7.545000,0.006840,
2025-11-12T17:19:54.229755+00:00,7.550000,0.011400,
2025-11-12T17:19:54.234755+00:00,7.555000,0.017860,
2025-11-12T17:19:54.239755+00:00,7.560000,0.025080,
2025-11-12T17:19:54.244755+00:00,7.565000,0.031540,
2025-11-12T17:19:54.249755+00:00,7.570000,0.036860,
2025-11-12T17:19:54.254755+00:00,7.575000,0.038000,
2025-11-12T17:19:54.259755+00:00,7.580000,0.039900,
2025-11-12T17:19:54.264755+00:00,7.585000,0.041040,
2025-11-12T17:19:54.269755+00:00,7.590000,0.038760,
2025-11-12T17:19:54.274755+00:00,7.595000,0.028500,
2025-11-12T17:19:54.279755+00:00,7.600000,0.015960,
2025-11-12T17:19:54.284755+00:00,7.605000,0.005320,
2025-11-12T17:19:54.289755+00:00,7.610000,-0.006840,
2025-11-12T17:19:54.294755+00:00,7.615000,-0.023180,
2025-11-12T17:19:54.299755+00:00,7.620000,-0.047500,
2025-11-12T17:19:54.304755+00:00,7.625000,-0.074100,
2025-11-12T17:19:54.309755+00:00,7.630000,-0.100320,
2025-11-12T17:19:54.314755+00:00,7.635000,-0.123500,
2025-11-12T17:19:54.319755+00:00,7.640000,-0.144400,
2025-11-12T17:19:54.324755+00:00,7.645000,-0.156940,
2025-11-12T17:19:54.329755+00:00,7.650000,-0.161500,
2025-11-12T17:19:54.334755+00:00,7.655000,-0.156560,
2025-11-12T17:19:54.339755+00:00,7.660000,-0.148200,
2025-11-12T17:19:54.344755+00:00,7.665000,-0.136420,
2025-11-12T17:19:54.349755+00:00,7.670000,-0.125400,
2025-11-12T17:19:54.354755+00:00,7.675000,-0.117040,
2025-11-12T17:19:54.359755+00:00,7.680000,-0.105640,
2025-11-12T17:19:54.364755+00:00,7.685000,-0.093100,
2025-11-12T17:19:54.369755+00:00,7.690000,-0.079420,
2025-11-12T17:19:54.374755+00:00,7.695000,-0.068020,
2025-11-12T17:19:54.379755+00:00,7.700000,-0.060800,
2025-11-12T17:19:54.384755+00:00,7.705000,-0.053200,
2025-11-12T17:19:54.389755+00:00,7.710000,-0.045220,
2025-11-12T17:19:54.394755+00:00,7.715000,-0.038760,
2025-11-12T17:19:54.399755+00:00,7.720000,-0.034960,
2025-11-12T17:19:54.404755+00:00,7.725000,-0.031540,
2025-11-12T17:19:54.409755+00:00,7.730000,-0.029640,
2025-11-12T17:19:54.414755+00:00,7.735000,-0.029640,
2025-11-12T17:19:54.419755+00:00,7.740000,-0.028880,
2025-11-12T17:19:54.424755+00:00,7.745000,-0.029260,
2025-11-12T17:19:54.429755+00:00,7.750000,-0.026220,
2025-11-12T17:19:54.434755+00:00,7.755000,-0.025460,
2025-11-12T17:19:54.439755+00:00,7.760000,-0.024700,
2025-11-12T17:19:54.444755+00:00,7.765000,-0.027360,
2025-11-12T17:19:54.449755+00:00,7.770000,-0.028120,
2025-11-12T17:19:54.454755+00:00,7.775000,-0.028880,
2025-11-12T17:19:54.459755+00:00,7.780000,-0.028120,
2025-11-12T17:19:54.464755+00:00,7.785000,-0.028120,
2025-11-12T17:19:54.469755+00:00,7.790000,-0.027360,
2025-11-12T17:19:54.474755+00:00,7.795000,-0.028120,
2025-11-12T17:19:54.479755+00:00,7.800000,-0.028880,
2025-11-12T17:19:54.484755+00:00,7.805000,-0.030780,
2025-11-12T17:19:54.489755+00:00,7.810000,-0.032300,
2025-11-12T17:19:54.494755+00:00,7.815000,-0.032300,
2025-11-12T17:19:54.499755+00:00,7.820000,-0.031920,
2025-11-12T17:19:54.504755+00:00,7.825000,-0.030400,
2025-11-12T17:19:54.509755+00:00,7.830000,-0.028880,
2025-11-12T17:19:54.514755+00:00,7.835000,-0.028120,
2025-11-12T17:19:54.519755+00:00,7.840000,-0.030020,
2025-11-12T17:19:54.524755+00:00,7.845000,-0.031920,
2025-11-12T17:19:54.529755+00:00,7.850000,-0.033820,
2025-11-12T17:19:54.534755+00:00,7.855000,-0.033440,
2025-11-12T17:19:54.539755+00:00,7.860000,-0.031160,
2025-11-12T17:19:54.544755+00:00,7.865000,-0.028500,
2025-11-12T17:19:54.549755+00:00,7.870000,-0.028500,
2025-11-12T17:19:54.554755+00:00,7.875000,-0.030780,
2025-11-12T17:19:54.559755+00:00,7.880000,-0.032680,
2025-11-12T17:19:54.564755+00:00,7.885000,-0.033060,
2025-11-12T17:19:54.569755+00:00,7.890000,-0.031160,
2025-11-12T17:19:54.574755+00:00,7.895000,-0.029260,
2025-11-12T17:19:54.579755+00:00,7.900000,-0.027740,
2025-11-12T17:19:54.584755+00:00,7.905000,-0.026980,
2025-11-12T17:19:54.589755+00:00,7.910000,-0.027360,
2025-11-12T17:19:54.594755+00:00,7.915000,-0.026980,
2025-11-12T17:19:54.599755+00:00,7.920000,-0.027360,
2025-11-12T17:19:54.604755+00:00,7.925000,-0.029260,
2025-11-12T17:19:54.609755+00:00,7.930000,-0.031160,
2025-11-12T17:19:54.614755+00:00,7.935000,-0.030020,
2025-11-12T17:19:54.619755+00:00,7.940000,-0.028120,
2025-11-12T17:19:54.624755+00:00,7.945000,-0.027360,
2025-11-12T17:19:54.629755+00:00,7.950000,-0.026600,
2025-11-12T17:19:54.634755+00:00,7.955000,-0.027360,
2025-11-12T17:19:54.639755+00:00,7.960000,-0.029260,
2025-11-12T17:19:54.644755+00:00,7.965000,-0.030780,
2025-11-12T17:19:54.649755+00:00,7.970000,-0.030400,
2025-11-12T17:19:54.654755+00:00,7.975000,-0.030020,
2025-11-12T17:19:54.659755+00:00,7.980000,-0.029640,
2025-11-12T17:19:54.664755+00:00,7.985000,-0.027740,
2025-11-12T17:19:54.669755+00:00,7.990000,-0.025080,
2025-11-12T17:19:54.674755+00:00,7.995000,-0.023560,
2025-11-12T17:19:54.679755+00:00,8.000000,-0.026980,
2025-11-12T17:19:54.684755+00:00,8.005000,-0.030780,
2025-11-12T17:19:54.689755+00:00,8.010000,-0.031920,
2025-11-12T17:19:54.694755+00:00,8.015000,-0.030780,
2025-11-12T17:19:54.699755+00:00,8.020000,-0.028880,
2025-11-12T17:19:54.704755+00:00,8.025000,-0.027360,
2025-11-12T17:19:54.709755+00:00,8.030000,-0.026980,
2025-11-12T17:19:54.714755+00:00,8.035000,-0.028120,
2025-11-12T17:19:54.719755+00:00,8.040000,-0.029640,
2025-11-12T17:19:54.724755+00:00,8.045000,-0.030400,
2025-11-12T17:19:54.729755+00:00,8.050000,-0.029640,
2025-11-12T17:19:54.734755+00:00,8.055000,-0.029640,
2025-11-12T17:19:54.739755+00:00,8.060000,-0.031160,
2025-11-12T17:19:54.744755+00:00,8.065000,-0.033820,
2025-11-12T17:19:54.749755+00:00,8.070000,-0.034200,
2025-11-12T17:19:54.754755+00:00,8.075000,-0.031160,
2025-11-12T17:19:54.759755+00:00,8.080000,-0.028880,
2025-11-12T17:19:54.764755+00:00,8.085000,-0.025080,
2025-11-12T17:19:54.769755+00:00,8.090000,-0.019760,
2025-11-12T17:19:54.774755+00:00,8.095000,-0.019000,
2025-11-12T17:19:54.779755+00:00,8.100000,-0.029260,
2025-11-12T17:19:54.784755+00:00,8.105000,-0.043700,
2025-11-12T17:19:54.789755+00:00,8.110000,-0.054340,
2025-11-12T17:19:54.794755+00:00,8.115000,-0.049020,
2025-11-12T17:19:54.799755+00:00,8.120000,-0.034200,
2025-11-12T17:19:54.804755+00:00,8.125000,-0.021660,
2025-11-12T17:19:54.809755+00:00,8.130000,-0.018620,
2025-11-12T17:19:54.814755+00:00,8.135000,-0.021660,
2025-11-12T17:19:54.819755+00:00,8.140000,-0.025460,
2025-11-12T17:19:54.824755+00:00,8.145000,-0.025460,
2025-11-12T17:19:54.829755+00:00,8.150000,-0.021660,
2025-11-12T17:19:54.834755+00:00,8.155000,-0.014820,
2025-11-12T17:19:54.839755+00:00,8.160000,-0.009500,
2025-11-12T17:19:54.844755+00:00,8.165000,-0.006840,
2025-11-12T17:19:54.849755+00:00,8.170000,-0.006080,
2025-11-12T17:19:54.854755+00:00,8.175000,-0.007600,
2025-11-12T17:19:54.859755+00:00,8.180000,-0.010640,
2025-11-12T17:19:54.864755+00:00,8.185000,-0.018240,
2025-11-12T17:19:54.869755+00:00,8.190000,-0.032680,
2025-11-12T17:19:54.874755+00:00,8.195000,-0.045980,
2025-11-12T17:19:54.879755+00:00,8.200000,-0.050920,
2025-11-12T17:19:54.884755+00:00,8.205000,-0.049400,
2025-11-12T17:19:54.889755+00:00,8.210000,-0.044840,
2025-11-12T17:19:54.894755+00:00,8.215000,-0.042940,
2025-11-12T17:19:54.899755+00:00,8.220000,-0.041800,
2025-11-12T17:19:54.904755+00:00,8.225000,-0.038000,
2025-11-12T17:19:54.909755+00:00,8.230000,-0.035340,
2025-11-12T17:19:54.914755+00:00,8.235000,-0.036480,
2025-11-12T17:19:54.919755+00:00,8.240000,-0.036100,
2025-11-12T17:19:54.924755+00:00,8.245000,-0.035340,
2025-11-12T17:19:54.929755+00:00,8.250000,-0.034580,
2025-11-12T17:19:54.934755+00:00,8.255000,-0.034580,
2025-11-12T17:19:54.939755+00:00,8.260000,-0.033440,
2025-11-12T17:19:54.944755+00:00,8.265000,-0.030020,
2025-11-12T17:19:54.949755+00:00,8.270000,-0.028120,
2025-11-12T17:19:54.954755+00:00,8.275000,-0.031160,
2025-11-12T17:19:54.959755+00:00,8.280000,-0.036100,
2025-11-12T17:19:54.964755+00:00,8.285000,-0.036860,
2025-11-12T17:19:54.969755+00:00,8.290000,-0.037240,
2025-11-12T17:19:54.974755+00:00,8.295000,-0.036100,
2025-11-12T17:19:54.979755+00:00,8.300000,-0.009120,
2025-11-12T17:19:54.984755+00:00,8.305000,0.082080,
2025-11-12T17:19:54.989755+00:00,8.310000,0.288040,
2025-11-12T17:19:54.994755+00:00,8.315000,0.634980,
2025-11-12T17:19:54.999755+00:00,8.320000,1.012320,
2025-11-12T17:19:55.004755+00:00,8.325000,1.138860,
2025-11-12T17:19:55.009755+00:00,8.330000,0.793820,
2025-11-12T17:19:55.014755+00:00,8.335000,0.080560,
2025-11-12T17:19:55.019755+00:00,8.340000,-0.595840,
2025-11-12T17:19:55.024755+00:00,8.345000,-0.889580,
2025-11-12T17:19:55.029755+00:00,8.350000,-0.807880,
2025-11-12T17:19:55.034755+00:00,8.355000,-0.597740,
2025-11-12T17:19:55.039755+00:00,8.360000,-0.445360,
2025-11-12T17:19:55.044755+00:00,8.365000,-0.360240,
2025-11-12T17:19:55.049755+00:00,8.370000,-0.296400,
2025-11-12T17:19:55.054755+00:00,8.375000,-0.236740,
2025-11-12T17:19:55.059755+00:00,8.380000,-0.189620,
2025-11-12T17:19:55.064755+00:00,8.385000,-0.153140,
2025-11-12T17:19:55.069755+00:00,8.390000,-0.123120,
2025-11-12T17:19:55.074755+00:00,8.395000,-0.095380,
2025-11-12T17:19:55.079755+00:00,8.400000,-0.073340,
2025-11-12T17:19:55.084755+00:00,8.405000,-0.057380,
2025-11-12T17:19:55.089755+00:00,8.410000,-0.045980,
2025-11-12T17:19:55.094755+00:00,8.415000,-0.038760,
2025-11-12T17:19:55.099755+00:00,8.420000,-0.031920,
2025-11-12T17:19:55.104755+00:00,8.425000,-0.025840,
2025-11-12T17:19:55.109755+00:00,8.430000,-0.023180,
2025-11-12T17:19:55.114755+00:00,8.435000,-0.022040,
2025-11-12T17:19:55.119755+00:00,8.440000,-0.021280,
2025-11-12T17:19:55.124755+00:00,8.445000,-0.020900,
2025-11-12T17:19:55.129755+00:00,8.450000,-0.019760,
2025-11-12T17:19:55.134755+00:00,8.455000,-0.016340,
2025-11-12T17:19:55.139755+00:00,8.460000,-0.011400,
2025-11-12T17:19:55.144755+00:00,8.465000,-0.007980,
2025-11-12T17:19:55.149755+00:00,8.470000,-0.007980,
2025-11-12T17:19:55.154755+00:00,8.475000,-0.009120,
2025-11-12T17:19:55.159755+00:00,8.480000,-0.009120,
2025-11-12T17:19:55.164755+00:00,8.485000,-0.004940,
2025-11-12T17:19:55.169755+00:00,8.490000,-0.001520,
2025-11-12T17:19:55.174755+00:00,8.495000,0.000000,
2025-11-12T17:19:55.179755+00:00,8.500000,0.002280,
2025-11-12T17:19:55.184755+00:00,8.505000,0.005320,
2025-11-12T17:19:55.189755+00:00,8.510000,0.009120,
2025-11-12T17:19:55.194755+00:00,8.515000,0.012160,
2025-11-12T17:19:55.199755+00:00,8.520000,0.016340,
2025-11-12T17:19:55.204755+00:00,8.525000,0.020520,
2025-11-12T17:19:55.209755+00:00,8.530000,0.025840,
2025-11-12T17:19:55.214755+00:00,8.535000,0.033060,
2025-11-12T17:19:55.219755+00:00,8.540000,0.038760,
2025-11-12T17:19:55.224755+00:00,8.545000,0.040280,
2025-11-12T17:19:55.229755+00:00,8.550000,0.039140,
2025-11-12T17:19:55.234755+00:00,8.555000,0.032680,
2025-11-12T17:19:55.239755+00:00,8.560000,0.024700,
2025-11-12T17:19:55.244755+00:00,8.565000,0.015580,
2025-11-12T17:19:55.249755+00:00,8.570000,0.005700,
2025-11-12T17:19:55.254755+00:00,8.575000,-0.005700,
2025-11-12T17:19:55.259755+00:00,8.580000,-0.023180,
2025-11-12T17:19:55.264755+00:00,8.585000,-0.046740,
2025-11-12T17:19:55.269755+00:00,8.590000,-0.075240,
2025-11-12T17:19:55.274755+00:00,8.595000,-0.102600,
2025-11-12T17:19:55.279755+00:00,8.600000,-0.126920,
2025-11-12T17:19:55.284755+00:00,8.605000,-0.148200,
2025-11-12T17:19:55.289755+00:00,8.610000,-0.162640,
2025-11-12T17:19:55.294755+00:00,8.615000,-0.167580,
2025-11-12T17:19:55.299755+00:00,8.620000,-0.164540,
2025-11-12T17:19:55.304755+00:00,8.625000,-0.156560,
2025-11-12T17:19:55.309755+00:00,8.630000,-0.144780,
2025-11-12T17:19:55.314755+00:00,8.635000,-0.132240,
2025-11-12T17:19:55.319755+00:00,8.640000,-0.120460,
2025-11-12T17:19:55.324755+00:00,8.645000,-0.106400,
2025-11-12T17:19:55.329755+00:00,8.650000,-0.090820,
2025-11-12T17:19:55.334755+00:00,8.655000,-0.074860,
2025-11-12T17:19:55.339755+00:00,8.660000,-0.063080,
2025-11-12T17:19:55.344755+00:00,8.665000,-0.056620,
2025-11-12T17:19:55.349755+00:00,8.670000,-0.052060,
2025-11-12T17:19:55.354755+00:00,8.675000,-0.045600,
2025-11-12T17:19:55.359755+00:00,8.680000,-0.039520,
2025-11-12T17:19:55.364755+00:00,8.685000,-0.035340,
2025-11-12T17:19:55.369755+00:00,8.690000,-0.032680,
2025-11-12T17:19:55.374755+00:00,8.695000,-0.033440,
2025-11-12T17:19:55.379755+00:00,8.700000,-0.033440,
2025-11-12T17:19:55.384755+00:00,8.705000,-0.029260,
2025-11-12T17:19:55.389755+00:00,8.710000,-0.025840,
2025-11-12T17:19:55.394755+00:00,8.715000,-0.024700,
2025-11-12T17:19:55.399755+00:00,8.720000,-0.026980,
2025-11-12T17:19:55.404755+00:00,8.725000,-0.029640,
2025-11-12T17:19:55.409755+00:00,8.730000,-0.028880,
2025-11-12T17:19:55.414755+00:00,8.735000,-0.026980,
2025-11-12T17:19:55.419755+00:00,8.740000,-0.027360,
2025-11-12T17:19:55.424755+00:00,8.745000,-0.029640,
2025-11-12T17:19:55.429755+00:00,8.750000,-0.031160,
2025-11-12T17:19:55.434755+00:00,8.755000,-0.031920,
2025-11-12T17:19:55.439755+00:00,8.760000,-0.030780,
2025-11-12T17:19:55.444755+00:00,8.765000,-0.028500,
2025-11-12T17:19:55.449755+00:00,8.770000,-0.027740,
2025-11-12T17:19:55.454755+00:00,8.775000,-0.028120,
2025-11-12T17:19:55.459755+00:00,8.780000,-0.029640,
2025-11-12T17:19:55.464755+00:00,8.785000,-0.031920,
2025-11-12T17:19:55.469755+00:00,8.790000,-0.033820,
2025-11-12T17:19:55.474755+00:00,8.795000,-0.033440,
2025-11-12T17:19:55.479755+00:00,8.800000,-0.034200,
2025-11-12T17:19:55.484755+00:00,8.805000,-0.034200,
2025-11-12T17:19:55.489755+00:00,8.810000,-0.035340,
2025-11-12T17:19:55.494755+00:00,8.815000,-0.035720,
2025-11-12T17:19:55.499755+00:00,8.820000,-0.035340,
2025-11-12T17:19:55.504755+00:00,8.825000,-0.031920,
2025-11-12T17:19:55.509755+00:00,8.830000,-0.027740,
2025-11-12T17:19:55.514755+00:00,8.835000,-0.026600,
2025-11-12T17:19:55.519755+00:00,8.840000,-0.028500,
2025-11-12T17:19:55.524755+00:00,8.845000,-0.033060,
2025-11-12T17:19:55.529755+00:00,8.850000,-0.036480,
2025-11-12T17:19:55.534755+00:00,8.855000,-0.035720,
2025-11-12T17:19:55.539755+00:00,8.860000,-0.032300,
2025-11-12T17:19:55.544755+00:00,8.865000,-0.029260,
2025-11-12T17:19:55.549755+00:00,8.870000,-0.028500,
2025-11-12T17:19:55.554755+00:00,8.875000,-0.030400,
2025-11-12T17:19:55.559755+00:00,8.880000,-0.031540,
2025-11-12T17:19:55.564755+00:00,8.885000,-0.032680,
2025-11-12T17:19:55.569755+00:00,8.890000,-0.033060,
2025-11-12T17:19:55.574755+00:00,8.895000,-0.033060,
2025-11-12T17:19:55.579755+00:00,8.900000,-0.032680,
2025-11-12T17:19:55.584755+00:00,8.905000,-0.029260,
2025-11-12T17:19:55.589755+00:00,8.910000,-0.026600,
2025-11-12T17:19:55.594755+00:00,8.915000,-0.026980,
2025-11-12T17:19:55.599755+00:00,8.920000,-0.029640,
2025-11-12T17:19:55.604755+00:00,8.925000,-0.030780,
2025-11-12T17:19:55.609755+00:00,8.930000,-0.030400,
2025-11-12T17:19:55.614755+00:00,8.935000,-0.030400,
2025-11-12T17:19:55.619755+00:00,8.940000,-0.029640,
2025-11-12T17:19:55.624755+00:00,8.945000,-0.027740,
2025-11-12T17:19:55.629755+00:00,8.950000,-0.025840,
2025-11-12T17:19:55.634755+00:00,8.955000,-0.025080,
2025-11-12T17:19:55.639755+00:00,8.960000,-0.026980,
2025-11-12T17:19:55.644755+00:00,8.965000,-0.029640,
2025-11-12T17:19:55.649755+00:00,8.970000,-0.031540,
2025-11-12T17:19:55.654755+00:00,8.975000,-0.030020,
2025-11-12T17:19:55.659755+00:00,8.980000,-0.025840,
2025-11-12T17:19:55.664755+00:00,8.985000,-0.023940,
2025-11-12T17:19:55.669755+00:00,8.990000,-0.026980,
2025-11-12T17:19:55.674755+00:00,8.995000,-0.032680,
2025-11-12T17:19:55.679755+00:00,9.000000,-0.034200,
2025-11-12T17:19:55.684755+00:00,9.005000,-0.031540,
2025-11-12T17:19:55.689755+00:00,9.010000,-0.028880,
2025-11-12T17:19:55.694755+00:00,9.015000,-0.027740,
2025-11-12T17:19:55.699755+00:00,9.020000,-0.027740,
2025-11-12T17:19:55.704755+00:00,9.025000,-0.026600,
2025-11-12T17:19:55.709755+00:00,9.030000,-0.026980,
2025-11-12T17:19:55.714755+00:00,9.035000,-0.027740,
2025-11-12T17:19:55.719755+00:00,9.040000,-0.028120,
2025-11-12T17:19:55.724755+00:00,9.045000,-0.026980,
2025-11-12T17:19:55.729755+00:00,9.050000,-0.028500,
2025-11-12T17:19:55.734755+00:00,9.055000,-0.031920,
2025-11-12T17:19:55.739755+00:00,9.060000,-0.036480,
2025-11-12T17:19:55.744755+00:00,9.065000,-0.035340,
2025-11-12T17:19:55.749755+00:00,9.070000,-0.028120,
2025-11-12T17:19:55.754755+00:00,9.075000,-0.016720,
2025-11-12T17:19:55.759755+00:00,9.080000,-0.012540,
2025-11-12T17:19:55.764755+00:00,9.085000,-0.013680,
2025-11-12T17:19:55.769755+00:00,9.090000,-0.016720,
2025-11-12T17:19:55.774755+00:00,9.095000,-0.014820,
2025-11-12T17:19:55.779755+00:00,9.100000,-0.012160,
2025-11-12T17:19:55.784755+00:00,9.105000,-0.012920,
2025-11-12T17:19:55.789755+00:00,9.110000,-0.023560,
2025-11-12T17:19:55.794755+00:00,9.115000,-0.036480,
2025-11-12T17:19:55.799755+00:00,9.120000,-0.045980,
2025-11-12T17:19:55.804755+00:00,9.125000,-0.048640,
2025-11-12T17:19:55.809755+00:00,9.130000,-0.047500,
2025-11-12T17:19:55.814755+00:00,9.135000,-0.044460,
2025-11-12T17:19:55.819755+00:00,9.140000,-0.040660,
2025-11-12T17:19:55.824755+00:00,9.145000,-0.039900,
2025-11-12T17:19:55.829755+00:00,9.150000,-0.038760,
2025-11-12T17:19:55.834755+00:00,9.155000,-0.036860,
2025-11-12T17:19:55.839755+00:00,9.160000,-0.037620,
2025-11-12T17:19:55.844755+00:00,9.165000,-0.037620,
2025-11-12T17:19:55.849755+00:00,9.170000,-0.038000,
2025-11-12T17:19:55.854755+00:00,9.175000,-0.036100,
2025-11-12T17:19:55.859755+00:00,9.180000,-0.033440,
2025-11-12T17:19:55.864755+00:00,9.185000,-0.030400,
2025-11-12T17:19:55.869755+00:00,9.190000,-0.031160,
2025-11-12T17:19:55.874755+00:00,9.195000,-0.033440,
2025-11-12T17:19:55.879755+00:00,9.200000,-0.035340,
2025-11-12T17:19:55.884755+00:00,9.205000,-0.038760,
2025-11-12T17:19:55.889755+00:00,9.210000,-0.044080,
2025-11-12T17:19:55.894755+00:00,9.215000,-0.045220,
2025-11-12T17:19:55.899755+00:00,9.220000,-0.028500,
2025-11-12T17:19:55.904755+00:00,9.225000,0.028120,
2025-11-12T17:19:55.909755+00:00,9.230000,0.156180,
2025-11-12T17:19:55.914755+00:00,9.235000,0.407360,
2025-11-12T17:19:55.919755+00:00,9.240000,0.771020,
2025-11-12T17:19:55.924755+00:00,9.245000,1.057160,
2025-11-12T17:19:55.929755+00:00,9.250000,0.980400,
2025-11-12T17:19:55.934755+00:00,9.255000,0.450300,
2025-11-12T17:19:55.939755+00:00,9.260000,-0.263340,
2025-11-12T17:19:55.944755+00:00,9.265000,-0.747460,
2025-11-12T17:19:55.949755+00:00,9.270000,-0.828020,
2025-11-12T17:19:55.954755+00:00,9.275000,-0.661200,
2025-11-12T17:19:55.959755+00:00,9.280000,-0.485640,
2025-11-12T17:19:55.964755+00:00,9.285000,-0.387220,
2025-11-12T17:19:55.969755+00:00,9.290000,-0.326420,
2025-11-12T17:19:55.974755+00:00,9.295000,-0.266380,
2025-11-12T17:19:55.979755+00:00,9.300000,-0.212800,
2025-11-12T17:19:55.984755+00:00,9.305000,-0.169860,
2025-11-12T17:19:55.989755+00:00,9.310000,-0.137560,
2025-11-12T17:19:55.994755+00:00,9.315000,-0.109440,
2025-11-12T17:19:55.999755+00:00,9.320000,-0.086640,
2025-11-12T17:19:56.004755+00:00,9.325000,-0.068020,
2025-11-12T17:19:56.009755+00:00,9.330000,-0.055100,
2025-11-12T17:19:56.014755+00:00,9.335000,-0.044080,
2025-11-12T17:19:56.019755+00:00,9.340000,-0.034580,
2025-11-12T17:19:56.024755+00:00,9.345000,-0.027360,
2025-11-12T17:19:56.029755+00:00,9.350000,-0.022800,
2025-11-12T17:19:56.034755+00:00,9.355000,-0.022040,
2025-11-12T17:19:56.039755+00:00,9.360000,-0.022420,
2025-11-12T17:19:56.044755+00:00,9.365000,-0.023940,
2025-11-12T17:19:56.049755+00:00,9.370000,-0.023940,
2025-11-12T17:19:56.054755+00:00,9.375000,-0.019760,
2025-11-12T17:19:56.059755+00:00,9.380000,-0.013300,
2025-11-12T17:19:56.064755+00:00,9.385000,-0.007980,
2025-11-12T17:19:56.069755+00:00,9.390000,-0.006080,
2025-11-12T17:19:56.074755+00:00,9.395000,-0.010640,
2025-11-12T17:19:56.079755+00:00,9.400000,-0.014820,
2025-11-12T17:19:56.084755+00:00,9.405000,-0.015580,
2025-11-12T17:19:56.089755+00:00,9.410000,-0.010260,
2025-11-12T17:19:56.094755+00:00,9.415000,-0.001900,
2025-11-12T17:19:56.099755+00:00,9.420000,0.006460,
2025-11-12T17:19:56.104755+00:00,9.425000,0.011780,
2025-11-12T17:19:56.109755+00:00,9.430000,0.015960,
2025-11-12T17:19:56.114755+00:00,9.435000,0.020900,
2025-11-12T17:19:56.119755+00:00,9.440000,0.025080,
2025-11-12T17:19:56.124755+00:00,9.445000,0.026980,
2025-11-12T17:19:56.129755+00:00,9.450000,0.026220,
2025-11-12T17:19:56.134755+00:00,9.455000,0.026220,
2025-11-12T17:19:56.139755+00:00,9.460000,0.030780,
2025-11-12T17:19:56.144755+00:00,9.465000,0.037240,
2025-11-12T17:19:56.149755+00:00,9.470000,0.039900,
2025-11-12T17:19:56.154755+00:00,9.475000,0.036860,
2025-11-12T17:19:56.159755+00:00,9.480000,0.027740,
2025-11-12T17:19:56.164755+00:00,9.485000,0.016340,
2025-11-12T17:19:56.169755+00:00,9.490000,0.004180,
2025-11-12T17:19:56.174755+00:00,9.495000,-0.007980,
2025-11-12T17:19:56.179755+00:00,9.500000,-0.022800,
2025-11-12T17:19:56.184755+00:00,9.505000,-0.042560,
2025-11-12T17:19:56.189755+00:00,9.510000,-0.065740,
2025-11-12T17:19:56.194755+00:00,9.515000,-0.091960,
2025-11-12T17:19:56.199755+00:00,9.520000,-0.118940,
2025-11-12T17:19:56.204755+00:00,9.525000,-0.144020,
2025-11-12T17:19:56.209755+00:00,9.530000,-0.160360,
2025-11-12T17:19:56.214755+00:00,9.535000,-0.162260,
2025-11-12T17:19:56.219755+00:00,9.540000,-0.156940,
2025-11-12T17:19:56.224755+00:00,9.545000,-0.144780,
2025-11-12T17:19:56.229755+00:00,9.550000,-0.135280,
2025-11-12T17:19:56.234755+00:00,9.555000,-0.131860,
2025-11-12T17:19:56.239755+00:00,9.560000,-0.131860,
2025-11-12T17:19:56.244755+00:00,9.565000,-0.128060,
2025-11-12T17:19:56.249755+00:00,9.570000,-0.116660,
2025-11-12T17:19:56.254755+00:00,9.575000,-0.100700,
2025-11-12T17:19:56.259755+00:00,9.580000,-0.084360,
2025-11-12T17:19:56.264755+00:00,9.585000,-0.071060,
2025-11-12T17:19:56.269755+00:00,9.590000,-0.060040,
2025-11-12T17:19:56.274755+00:00,9.595000,-0.052060,
2025-11-12T17:19:56.279755+00:00,9.600000,-0.043700,
2025-11-12T17:19:56.284755+00:00,9.605000,-0.038000,
2025-11-12T17:19:56.289755+00:00,9.610000,-0.037240,
2025-11-12T17:19:56.294755+00:00,9.615000,-0.041420,
2025-11-12T17:19:56.299755+00:00,9.620000,-0.044840,
2025-11-12T17:19:56.304755+00:00,9.625000,-0.041420,
2025-11-12T17:19:56.309755+00:00,9.630000,-0.031160,
2025-11-12T17:19:56.314755+00:00,9.635000,-0.016720,
2025-11-12T17:19:56.319755+00:00,9.640000,-0.007220,
2025-11-12T17:19:56.324755+00:00,9.645000,-0.004940,
2025-11-12T17:19:56.329755+00:00,9.650000,-0.010640,
2025-11-12T17:19:56.334755+00:00,9.655000,-0.019000,
2025-11-12T17:19:56.339755+00:00,9.660000,-0.026600,
2025-11-12T17:19:56.344755+00:00,9.665000,-0.031160,
2025-11-12T17:19:56.349755+00:00,9.670000,-0.036100,
2025-11-12T17:19:56.354755+00:00,9.675000,-0.042940,
2025-11-12T17:19:56.359755+00:00,9.680000,-0.047500,
2025-11-12T17:19:56.364755+00:00,9.685000,-0.046740,
2025-11-12T17:19:56.369755+00:00,9.690000,-0.043700,
2025-11-12T17:19:56.374755+00:00,9.695000,-0.038760,
2025-11-12T17:19:56.379755+00:00,9.700000,-0.035720,
2025-11-12T17:19:56.384755+00:00,9.705000,-0.036480,
2025-11-12T17:19:56.389755+00:00,9.710000,-0.037240,
2025-11-12T17:19:56.394755+00:00,9.715000,-0.034200,
2025-11-12T17:19:56.399755+00:00,9.720000,-0.027740,
2025-11-12T17:19:56.404755+00:00,9.725000,-0.022040,
2025-11-12T17:19:56.409755+00:00,9.730000,-0.024700,
2025-11-12T17:19:56.414755+00:00,9.735000,-0.031920,
2025-11-12T17:19:56.419755+00:00,9.740000,-0.035340,
2025-11-12T17:19:56.424755+00:00,9.745000,-0.032300,
2025-11-12T17:19:56.429755+00:00,9.750000,-0.026600,
2025-11-12T17:19:56.434755+00:00,9.755000,-0.028880,
2025-11-12T17:19:56.439755+00:00,9.760000,-0.038380,
2025-11-12T17:19:56.444755+00:00,9.765000,-0.047880,
2025-11-12T17:19:56.449755+00:00,9.770000,-0.051300,
2025-11-12T17:19:56.454755+00:00,9.775000,-0.047500,
2025-11-12T17:19:56.459755+00:00,9.780000,-0.041800,
2025-11-12T17:19:56.464755+00:00,9.785000,-0.036860,
2025-11-12T17:19:56.469755+00:00,9.790000,-0.034960,
2025-11-12T17:19:56.474755+00:00,9.795000,-0.033820,
2025-11-12T17:19:56.479755+00:00,9.800000,-0.032300,
2025-11-12T17:19:56.484755+00:00,9.805000,-0.031540,
2025-11-12T17:19:56.489755+00:00,9.810000,-0.030780,
2025-11-12T17:19:56.494755+00:00,9.815000,-0.032300,
2025-11-12T17:19:56.499755+00:00,9.820000,-0.033440,
2025-11-12T17:19:56.504755+00:00,9.825000,-0.031160,
2025-11-12T17:19:56.509755+00:00,9.830000,-0.026220,
2025-11-12T17:19:56.514755+00:00,9.835000,-0.024320,
2025-11-12T17:19:56.519755+00:00,9.840000,-0.029260,
2025-11-12T17:19:56.524755+00:00,9.845000,-0.038000,
2025-11-12T17:19:56.529755+00:00,9.850000,-0.040280,
2025-11-12T17:19:56.534755+00:00,9.855000,-0.033440,
2025-11-12T17:19:56.539755+00:00,9.860000,-0.021660,
2025-11-12T17:19:56.544755+00:00,9.865000,-0.018240,
2025-11-12T17:19:56.549755+00:00,9.870000,-0.017480,
2025-11-12T17:19:56.554755+00:00,9.875000,-0.017860,
2025-11-12T17:19:56.559755+00:00,9.880000,-0.025080,
2025-11-12T17:19:56.564755+00:00,9.885000,-0.039900,
2025-11-12T17:19:56.569755+00:00,9.890000,-0.058900,
2025-11-12T17:19:56.574755+00:00,9.895000,-0.065360,
2025-11-12T17:19:56.579755+00:00,9.900000,-0.049400,
2025-11-12T17:19:56.584755+00:00,9.905000,-0.024700,
2025-11-12T17:19:56.589755+00:00,9.910000,-0.009880,
2025-11-12T17:19:56.594755+00:00,9.915000,-0.014440,
2025-11-12T17:19:56.599755+00:00,9.920000,-0.030020,
2025-11-12T17:19:56.604755+00:00,9.925000,-0.046360,
2025-11-12T17:19:56.609755+00:00,9.930000,-0.050160,
2025-11-12T17:19:56.614755+00:00,9.935000,-0.041800,
2025-11-12T17:19:56.619755+00:00,9.940000,-0.029260,
2025-11-12T17:19:56.624755+00:00,9.945000,-0.017480,
2025-11-12T17:19:56.629755+00:00,9.950000,-0.009880,
2025-11-12T17:19:56.634755+00:00,9.955000,-0.008360,
2025-11-12T17:19:56.639755+00:00,9.960000,-0.015200,
2025-11-12T17:19:56.644755+00:00,9.965000,-0.027740,
2025-11-12T17:19:56.649755+00:00,9.970000,-0.041800,
2025-11-12T17:19:56.654755+00:00,9.975000,-0.053580,
2025-11-12T17:19:56.659755+00:00,9.980000,-0.058520,
2025-11-12T17:19:56.664755+00:00,9.985000,-0.055860,
2025-11-12T17:19:56.669755+00:00,9.990000,-0.046740,
2025-11-12T17:19:56.674755+00:00,9.995000,-0.031160,
2025-11-12T17:19:56.679755+00:00,10.000000,-0.014440,
2025-11-12T17:19:56.684755+00:00,10.005000,-0.004560,
2025-11-12T17:19:56.689755+00:00,10.010000,-0.013680,
2025-11-12T17:19:56.694755+00:00,10.015000,-0.036480,
2025-11-12T17:19:56.699755+00:00,10.020000,-0.055480,
2025-11-12T17:19:56.704755+00:00,10.025000,-0.060420,
2025-11-12T17:19:56.709755+00:00,10.030000,-0.052060,
2025-11-12T17:19:56.714755+00:00,10.035000,-0.044080,
2025-11-12T17:19:56.719755+00:00,10.040000,-0.041800,
2025-11-12T17:19:56.724755+00:00,10.045000,-0.043700,
2025-11-12T17:19:56.729755+00:00,10.050000,-0.040660,
2025-11-12T17:19:56.734755+00:00,10.055000,-0.035340,
2025-11-12T17:19:56.739755+00:00,10.060000,-0.038000,
2025-11-12T17:19:56.744755+00:00,10.065000,-0.044460,
2025-11-12T17:19:56.749755+00:00,10.070000,-0.025080,
2025-11-12T17:19:56.754755+00:00,10.075000,0.052440,
2025-11-12T17:19:56.759755+00:00,10.080000,0.239400,
2025-11-12T17:19:56.764755+00:00,10.085000,0.575700,
2025-11-12T17:19:56.769755+00:00,10.090000,0.989900,
2025-11-12T17:19:56.774755+00:00,10.095000,1.208400,
2025-11-12T17:19:56.779755+00:00,10.100000,0.946200,
2025-11-12T17:19:56.784755+00:00,10.105000,0.232560,
2025-11-12T17:19:56.789755+00:00,10.110000,-0.530480,
2025-11-12T17:19:56.794755+00:00,10.115000,-0.924160,
2025-11-12T17:19:56.799755+00:00,10.120000,-0.885400,
2025-11-12T17:19:56.804755+00:00,10.125000,-0.663860,
2025-11-12T17:19:56.809755+00:00,10.130000,-0.486020,
2025-11-12T17:19:56.814755+00:00,10.135000,-0.389500,
2025-11-12T17:19:56.819755+00:00,10.140000,-0.319960,
2025-11-12T17:19:56.824755+00:00,10.145000,-0.254220,
2025-11-12T17:19:56.829755+00:00,10.150000,-0.199120,
2025-11-12T17:19:56.834755+00:00,10.155000,-0.157320,
2025-11-12T17:19:56.839755+00:00,10.160000,-0.126540,
2025-11-12T17:19:56.844755+00:00,10.165000,-0.102220,
2025-11-12T17:19:56.849755+00:00,10.170000,-0.082840,
2025-11-12T17:19:56.854755+00:00,10.175000,-0.066120,
2025-11-12T17:19:56.859755+00:00,10.180000,-0.052060,
2025-11-12T17:19:56.864755+00:00,10.185000,-0.044080,
2025-11-12T17:19:56.869755+00:00,10.190000,-0.036100,
2025-11-12T17:19:56.874755+00:00,10.195000,-0.025840,
2025-11-12T17:19:56.879755+00:00,10.200000,-0.015960,
2025-11-12T17:19:56.884755+00:00,10.205000,-0.016340,
2025-11-12T17:19:56.889755+00:00,10.210000,-0.025840,
2025-11-12T17:19:56.894755+00:00,10.215000,-0.033820,
2025-11-12T17:19:56.899755+00:00,10.220000,-0.030400,
2025-11-12T17:19:56.904755+00:00,10.225000,-0.022040,
2025-11-12T17:19:56.909755+00:00,10.230000,-0.016720,
2025-11-12T17:19:56.914755+00:00,10.235000,-0.014060,
2025-11-12T17:19:56.919755+00:00,10.240000,-0.011780,
2025-11-12T17:19:56.924755+00:00,10.245000,-0.015960,
2025-11-12T17:19:56.929755+00:00,10.250000,-0.022420,
2025-11-12T17:19:56.934755+00:00,10.255000,-0.016340,
2025-11-12T17:19:56.939755+00:00,10.260000,0.009500,
2025-11-12T17:19:56.944755+00:00,10.265000,0.036860,
2025-11-12T17:19:56.949755+00:00,10.270000,0.042560,
2025-11-12T17:19:56.954755+00:00,10.275000,0.020900,
2025-11-12T17:19:56.959755+00:00,10.280000,-0.006460,
2025-11-12T17:19:56.964755+00:00,10.285000,-0.017100,
2025-11-12T17:19:56.969755+00:00,10.290000,-0.008360,
2025-11-12T17:19:56.974755+00:00,10.295000,0.007980,
2025-11-12T17:19:56.979755+00:00,10.300000,0.021660,
2025-11-12T17:19:56.984755+00:00,10.305000,0.030020,
2025-11-12T17:19:56.989755+00:00,10.310000,0.034960,
2025-11-12T17:19:56.994755+00:00,10.315000,0.038000,
2025-11-12T17:19:56.999755+00:00,10.320000,0.036480,
2025-11-12T17:19:57.004755+00:00,10.325000,0.031920,
2025-11-12T17:19:57.009755+00:00,10.330000,0.024700,
2025-11-12T17:19:57.014755+00:00,10.335000,0.014440,
2025-11-12T17:19:57.019755+00:00,10.340000,0.001520,
2025-11-12T17:19:57.024755+00:00,10.345000,-0.007600,
2025-11-12T17:19:57.029755+00:00,10.350000,-0.014820,
2025-11-12T17:19:57.034755+00:00,10.355000,-0.031540,
2025-11-12T17:19:57.039755+00:00,10.360000,-0.063080,
2025-11-12T17:19:57.044755+00:00,10.365000,-0.101460,
2025-11-12T17:19:57.049755+00:00,10.370000,-0.132620,
2025-11-12T17:19:57.054755+00:00,10.375000,-0.149340,
2025-11-12T17:19:57.059755+00:00,10.380000,-0.154660,
2025-11-12T17:19:57.064755+00:00,10.385000,-0.152760,
2025-11-12T17:19:57.069755+00:00,10.390000,-0.150480,
2025-11-12T17:19:57.074755+00:00,10.395000,-0.144780,
2025-11-12T17:19:57.079755+00:00,10.400000,-0.137180,
2025-11-12T17:19:57.084755+00:00,10.405000,-0.123880,
2025-11-12T17:19:57.089755+00:00,10.410000,-0.110200,
2025-11-12T17:19:57.094755+00:00,10.415000,-0.096520,
2025-11-12T17:19:57.099755+00:00,10.420000,-0.079420,
2025-11-12T17:19:57.104755+00:00,10.425000,-0.060800,
2025-11-12T17:19:57.109755+00:00,10.430000,-0.052060,
2025-11-12T17:19:57.114755+00:00,10.435000,-0.057380,
2025-11-12T17:19:57.119755+00:00,10.440000,-0.065360,
2025-11-12T17:19:57.124755+00:00,10.445000,-0.059660,
2025-11-12T17:19:57.129755+00:00,10.450000,-0.042560,
2025-11-12T17:19:57.134755+00:00,10.455000,-0.025840,
2025-11-12T17:19:57.139755+00:00,10.460000,-0.019000,
2025-11-12T17:19:57.144755+00:00,10.465000,-0.021660,
2025-11-12T17:19:57.149755+00:00,10.470000,-0.026980,
2025-11-12T17:19:57.154755+00:00,10.475000,-0.030400,
2025-11-12T17:19:57.159755+00:00,10.480000,-0.030400,
2025-11-12T17:19:57.164755+00:00,10.485000,-0.026220,
2025-11-12T17:19:57.169755+00:00,10.490000,-0.023180,
2025-11-12T17:19:57.174755+00:00,10.495000,-0.024320,
2025-11-12T17:19:57.179755+00:00,10.500000,-0.031160,
2025-11-12T17:19:57.184755+00:00,10.505000,-0.041040,
2025-11-12T17:19:57.189755+00:00,10.510000,-0.045980,
2025-11-12T17:19:57.194755+00:00,10.515000,-0.043700,
2025-11-12T17:19:57.199755+00:00,10.520000,-0.034200,
2025-11-12T17:19:57.204755+00:00,10.525000,-0.023560,
2025-11-12T17:19:57.209755+00:00,10.530000,-0.019760,
2025-11-12T17:19:57.214755+00:00,10.535000,-0.023180,
2025-11-12T17:19:57.219755+00:00,10.540000,-0.034200,
2025-11-12T17:19:57.224755+00:00,10.545000,-0.043320,
2025-11-12T17:19:57.229755+00:00,10.550000,-0.044080,
2025-11-12T17:19:57.234755+00:00,10.555000,-0.039520,
2025-11-12T17:19:57.239755+00:00,10.560000,-0.035340,
2025-11-12T17:19:57.244755+00:00,10.565000,-0.035340,
2025-11-12T17:19:57.249755+00:00,10.570000,-0.038760,
2025-11-12T17:19:57.254755+00:00,10.575000,-0.039140,
2025-11-12T17:19:57.259755+00:00,10.580000,-0.035720,
2025-11-12T17:19:57.264755+00:00,10.585000,-0.027360,
2025-11-12T17:19:57.269755+00:00,10.590000,-0.015960,
2025-11-12T17:19:57.274755+00:00,10.595000,-0.015580,
2025-11-12T17:19:57.279755+00:00,10.600000,-0.031540,
2025-11-12T17:19:57.284755+00:00,10.605000,-0.052440,
2025-11-12T17:19:57.289755+00:00,10.610000,-0.060800,
2025-11-12T17:19:57.294755+00:00,10.615000,-0.051680,
2025-11-12T17:19:57.299755+00:00,10.620000,-0.038760,
2025-11-12T17:19:57.304755+00:00,10.625000,-0.036100,
2025-11-12T17:19:57.309755+00:00,10.630000,-0.041420,
2025-11-12T17:19:57.314755+00:00,10.635000,-0.045220,
2025-11-12T17:19:57.319755+00:00,10.640000,-0.041420,
2025-11-12T17:19:57.324755+00:00,10.645000,-0.034200,
2025-11-12T17:19:57.329755+00:00,10.650000,-0.027360,
2025-11-12T17:19:57.334755+00:00,10.655000,-0.024320,
2025-11-12T17:19:57.339755+00:00,10.660000,-0.024320,
2025-11-12T17:19:57.344755+00:00,10.665000,-0.021280,
2025-11-12T17:19:57.349755+00:00,10.670000,-0.012920,
2025-11-12T17:19:57.354755+00:00,10.675000,-0.012920,
2025-11-12T17:19:57.359755+00:00,10.680000,-0.032300,
2025-11-12T17:19:57.364755+00:00,10.685000,-0.060040,
2025-11-12T17:19:57.369755+00:00,10.690000,-0.068780,
2025-11-12T17:19:57.374755+00:00,10.695000,-0.053580,
2025-11-12T17:19:57.379755+00:00,10.700000,-0.032300,
2025-11-12T17:19:57.384755+00:00,10.705000,-0.028880,
2025-11-12T17:19:57.389755+00:00,10.710000,-0.034580,
2025-11-12T17:19:57.394755+00:00,10.715000,-0.034580,
2025-11-12T17:19:57.399755+00:00,10.720000,-0.026980,
2025-11-12T17:19:57.404755+00:00,10.725000,-0.024320,
2025-11-12T17:19:57.409755+00:00,10.730000,-0.033820,
2025-11-12T17:19:57.414755+00:00,10.735000,-0.043320,
2025-11-12T17:19:57.419755+00:00,10.740000,-0.046360,
2025-11-12T17:19:57.424755+00:00,10.745000,-0.041800,
2025-11-12T17:19:57.429755+00:00,10.750000,-0.027740,
2025-11-12T17:19:57.434755+00:00,10.755000,-0.003800,
2025-11-12T17:19:57.439755+00:00,10.760000,0.016720,
2025-11-12T17:19:57.444755+00:00,10.765000,0.015580,
2025-11-12T17:19:57.449755+00:00,10.770000,-0.009880,
2025-11-12T17:19:57.454755+00:00,10.775000,-0.038760,
2025-11-12T17:19:57.459755+00:00,10.780000,-0.047120,
2025-11-12T17:19:57.464755+00:00,10.785000,-0.036860,
2025-11-12T17:19:57.469755+00:00,10.790000,-0.027740,
2025-11-12T17:19:57.474755+00:00,10.795000,-0.034200,
2025-11-12T17:19:57.479755+00:00,10.800000,-0.050540,
2025-11-12T17:19:57.484755+00:00,10.805000,-0.060800,
2025-11-12T17:19:57.489755+00:00,10.810000,-0.060420,
2025-11-12T17:19:57.494755+00:00,10.815000,-0.054340,
2025-11-12T17:19:57.499755+00:00,10.820000,-0.049020,
2025-11-12T17:19:57.504755+00:00,10.825000,-0.050160,
2025-11-12T17:19:57.509755+00:00,10.830000,-0.052820,
2025-11-12T17:19:57.514755+00:00,10.835000,-0.048640,
2025-11-12T17:19:57.519755+00:00,10.840000,-0.037240,
2025-11-12T17:19:57.524755+00:00,10.845000,-0.021660,
2025-11-12T17:19:57.529755+00:00,10.850000,-0.011780,
2025-11-12T17:19:57.534755+00:00,10.855000,-0.014060,
2025-11-12T17:19:57.539755+00:00,10.860000,-0.026980,
2025-11-12T17:19:57.544755+00:00,10.865000,-0.041040,
2025-11-12T17:19:57.549755+00:00,10.870000,-0.051680,
2025-11-12T17:19:57.554755+00:00,10.875000,-0.058520,
2025-11-12T17:19:57.559755+00:00,10.880000,-0.057000,
2025-11-12T17:19:57.564755+00:00,10.885000,-0.046740,
2025-11-12T17:19:57.569755+00:00,10.890000,-0.034200,
2025-11-12T17:19:57.574755+00:00,10.895000,-0.028500,
2025-11-12T17:19:57.579755+00:00,10.900000,-0.031920,
2025-11-12T17:19:57.584755+00:00,10.905000,-0.026220,
2025-11-12T17:19:57.589755+00:00,10.910000,0.028120,
2025-11-12T17:19:57.594755+00:00,10.915000,0.183160,
2025-11-12T17:19:57.599755+00:00,10.920000,0.482980,
2025-11-12T17:19:57.604755+00:00,10.925000,0.851580,
2025-11-12T17:19:57.609755+00:00,10.930000,1.039300,
2025-11-12T17:19:57.614755+00:00,10.935000,0.803320,
2025-11-12T17:19:57.619755+00:00,10.940000,0.191900,
2025-11-12T17:19:57.624755+00:00,10.945000,-0.445740,
2025-11-12T17:19:57.629755+00:00,10.950000,-0.771020,
2025-11-12T17:19:57.634755+00:00,10.955000,-0.744800,
2025-11-12T17:19:57.639755+00:00,10.960000,-0.569240,
2025-11-12T17:19:57.644755+00:00,10.965000,-0.425600,
2025-11-12T17:19:57.649755+00:00,10.970000,-0.339720,
2025-11-12T17:19:57.654755+00:00,10.975000,-0.272840,
2025-11-12T17:19:57.659755+00:00,10.980000,-0.215840,
2025-11-12T17:19:57.664755+00:00,10.985000,-0.173280,
2025-11-12T17:19:57.669755+00:00,10.990000,-0.144020,
2025-11-12T17:19:57.674755+00:00,10.995000,-0.118940,
2025-11-12T17:19:57.679755+00:00,11.000000,-0.101080,
2025-11-12T17:19:57.684755+00:00,11.005000,-0.095380,
2025-11-12T17:19:57.689755+00:00,11.010000,-0.093480,
2025-11-12T17:19:57.694755+00:00,11.015000,-0.076000,
2025-11-12T17:19:57.699755+00:00,11.020000,-0.041800,
2025-11-12T17:19:57.704755+00:00,11.025000,-0.006460,
2025-11-12T17:19:57.709755+00:00,11.030000,0.005700,
2025-11-12T17:19:57.714755+00:00,11.035000,0.001900,
2025-11-12T17:19:57.719755+00:00,11.040000,-0.004940,
2025-11-12T17:19:57.724755+00:00,11.045000,-0.005700,
2025-11-12T17:19:57.729755+00:00,11.050000,-0.008360,
2025-11-12T17:19:57.734755+00:00,11.055000,-0.012920,
2025-11-12T17:19:57.739755+00:00,11.060000,-0.016720,
2025-11-12T17:19:57.744755+00:00,11.065000,-0.020140,
2025-11-12T17:19:57.749755+00:00,11.070000,-0.016340,
2025-11-12T17:19:57.754755+00:00,11.075000,-0.007600,
2025-11-12T17:19:57.759755+00:00,11.080000,-0.001520,
2025-11-12T17:19:57.764755+00:00,11.085000,-0.000380,
2025-11-12T17:19:57.769755+00:00,11.090000,-0.004560,
2025-11-12T17:19:57.774755+00:00,11.095000,-0.005700,
2025-11-12T17:19:57.779755+00:00,11.100000,-0.000380,
2025-11-12T17:19:57.784755+00:00,11.105000,0.004180,
2025-11-12T17:19:57.789755+00:00,11.110000,0.009880,
2025-11-12T17:19:57.794755+00:00,11.115000,0.020140,
2025-11-12T17:19:57.799755+00:00,11.120000,0.033820,
2025-11-12T17:19:57.804755+00:00,11.125000,0.039520,
2025-11-12T17:19:57.809755+00:00,11.130000,0.035340,
2025-11-12T17:19:57.814755+00:00,11.135000,0.031160,
2025-11-12T17:19:57.819755+00:00,11.140000,0.033440,
2025-11-12T17:19:57.824755+00:00,11.145000,0.039900,
2025-11-12T17:19:57.829755+00:00,11.150000,0.041040,
2025-11-12T17:19:57.834755+00:00,11.155000,0.040280,
2025-11-12T17:19:57.839755+00:00,11.160000,0.036100,
2025-11-12T17:19:57.844755+00:00,11.165000,0.026980,
2025-11-12T17:19:57.849755+00:00,11.170000,0.013300,
2025-11-12T17:19:57.854755+00:00,11.175000,-0.001140,
2025-11-12T17:19:57.859755+00:00,11.180000,-0.014440,
2025-11-12T17:19:57.864755+00:00,11.185000,-0.031160,
2025-11-12T17:19:57.869755+00:00,11.190000,-0.058900,
2025-11-12T17:19:57.874755+00:00,11.195000,-0.091960,
2025-11-12T17:19:57.879755+00:00,11.200000,-0.123500,
2025-11-12T17:19:57.884755+00:00,11.205000,-0.149340,
2025-11-12T17:19:57.889755+00:00,11.210000,-0.167960,
2025-11-12T17:19:57.894755+00:00,11.215000,-0.179360,
2025-11-12T17:19:57.899755+00:00,11.220000,-0.180500,
2025-11-12T17:19:57.904755+00:00,11.225000,-0.173660,
2025-11-12T17:19:57.909755+00:00,11.230000,-0.163400,
2025-11-12T17:19:57.914755+00:00,11.235000,-0.152000,
2025-11-12T17:19:57.919755+00:00,11.240000,-0.140980,
2025-11-12T17:19:57.924755+00:00,11.245000,-0.125780,
2025-11-12T17:19:57.929755+00:00,11.250000,-0.107920,
2025-11-12T17:19:57.934755+00:00,11.255000,-0.090440,
2025-11-12T17:19:57.939755+00:00,11.260000,-0.077900,
2025-11-12T17:19:57.944755+00:00,11.265000,-0.066880,
2025-11-12T17:19:57.949755+00:00,11.270000,-0.057760,
2025-11-12T17:19:57.954755+00:00,11.275000,-0.050160,
2025-11-12T17:19:57.959755+00:00,11.280000,-0.047500,
2025-11-12T17:19:57.964755+00:00,11.285000,-0.048640,
2025-11-12T17:19:57.969755+00:00,11.290000,-0.049400,
2025-11-12T17:19:57.974755+00:00,11.295000,-0.044080,
2025-11-12T17:19:57.979755+00:00,11.300000,-0.036100,
2025-11-12T17:19:57.984755+00:00,11.305000,-0.025840,
2025-11-12T17:19:57.989755+00:00,11.310000,-0.022040,
2025-11-12T17:19:57.994755+00:00,11.315000,-0.023940,
