timestamp_utc,t_rel_sec,ecg_mV,event
2025-10-16T06:15:32.182521+00:00,0.000000,0.000000,
2025-10-16T06:15:32.187521+00:00,0.005000,-0.000380,
2025-10-16T06:15:32.192521+00:00,0.010000,-0.000380,
2025-10-16T06:15:32.197521+00:00,0.015000,-0.001140,
2025-10-16T06:15:32.202521+00:00,0.020000,-0.020520,
2025-10-16T06:15:32.207521+00:00,0.025000,0.021280,
2025-10-16T06:15:32.212521+00:00,0.030000,0.084740,
2025-10-16T06:15:32.217521+00:00,0.035000,-0.280440,
2025-10-16T06:15:32.222521+00:00,0.040000,-0.210140,
2025-10-16T06:15:32.227521+00:00,0.045000,1.246780,
2025-10-16T06:15:32.232521+00:00,0.050000,0.885400,
2025-10-16T06:15:32.237521+00:00,0.055000,-2.841640,
2025-10-16T06:15:32.242521+00:00,0.060000,-2.653540,
2025-10-16T06:15:32.247521+00:00,0.065000,8.803080,
2025-10-16T06:15:32.252521+00:00,0.070000,26.375420,
2025-10-16T06:15:32.257521+00:00,0.075000,35.876180,
2025-10-16T06:15:32.262521+00:00,0.080000,30.911100,
2025-10-16T06:15:32.267521+00:00,0.085000,20.087180,
2025-10-16T06:15:32.272521+00:00,0.090000,14.702580,
2025-10-16T06:15:32.277521+00:00,0.095000,15.123240,
2025-10-16T06:15:32.282521+00:00,0.100000,14.824560,
2025-10-16T06:15:32.287521+00:00,0.105000,12.494780,
2025-10-16T06:15:32.292521+00:00,0.110000,10.698140,
2025-10-16T06:15:32.297521+00:00,0.115000,9.507980,
2025-10-16T06:15:32.302521+00:00,0.120000,8.246380,
2025-10-16T06:15:32.307521+00:00,0.125000,7.227600,
2025-10-16T06:15:32.312521+00:00,0.130000,6.712320,
2025-10-16T06:15:32.317521+00:00,0.135000,6.467220,
2025-10-16T06:15:32.322521+00:00,0.140000,6.080380,
2025-10-16T06:15:32.327521+00:00,0.145000,5.602720,
2025-10-16T06:15:32.332521+00:00,0.150000,5.337480,
2025-10-16T06:15:32.337521+00:00,0.155000,5.243620,
2025-10-16T06:15:32.342521+00:00,0.160000,5.122020,
2025-10-16T06:15:32.347521+00:00,0.165000,4.972300,
2025-10-16T06:15:32.352521+00:00,0.170000,4.860200,
2025-10-16T06:15:32.357521+00:00,0.175000,4.763300,
2025-10-16T06:15:32.362521+00:00,0.180000,4.658800,
2025-10-16T06:15:32.367521+00:00,0.185000,4.553160,
2025-10-16T06:15:32.372521+00:00,0.190000,4.453600,
2025-10-16T06:15:32.377521+00:00,0.195000,4.360500,
2025-10-16T06:15:32.382521+00:00,0.200000,4.271580,
2025-10-16T06:15:32.387521+00:00,0.205000,4.187600,
2025-10-16T06:15:32.392521+00:00,0.210000,4.107800,
2025-10-16T06:15:32.397521+00:00,0.215000,4.034080,
2025-10-16T06:15:32.402521+00:00,0.220000,3.961500,
2025-10-16T06:15:32.407521+00:00,0.225000,3.888540,
2025-10-16T06:15:32.412521+00:00,0.230000,3.820520,
2025-10-16T06:15:32.417521+00:00,0.235000,3.760480,
2025-10-16T06:15:32.422521+00:00,0.240000,3.697020,
2025-10-16T06:15:32.427521+00:00,0.245000,3.631660,
2025-10-16T06:15:32.432521+00:00,0.250000,3.567060,
2025-10-16T06:15:32.437521+00:00,0.255000,3.505500,
2025-10-16T06:15:32.442521+00:00,0.260000,3.450780,
2025-10-16T06:15:32.447521+00:00,0.265000,3.391880,
2025-10-16T06:15:32.452521+00:00,0.270000,3.327280,
2025-10-16T06:15:32.457521+00:00,0.275000,3.266480,
2025-10-16T06:15:32.462521+00:00,0.280000,3.215940,
2025-10-16T06:15:32.467521+00:00,0.285000,3.168820,
2025-10-16T06:15:32.472521+00:00,0.290000,3.120180,
2025-10-16T06:15:32.477521+00:00,0.295000,3.066220,
2025-10-16T06:15:32.482521+00:00,0.300000,3.006560,
2025-10-16T06:15:32.487521+00:00,0.305000,2.951840,
2025-10-16T06:15:32.492521+00:00,0.310000,2.908900,
2025-10-16T06:15:32.497521+00:00,0.315000,2.867100,
2025-10-16T06:15:32.502521+00:00,0.320000,2.820740,
2025-10-16T06:15:32.507521+00:00,0.325000,2.777800,
2025-10-16T06:15:32.512521+00:00,0.330000,2.739040,
2025-10-16T06:15:32.517521+00:00,0.335000,2.697620,
2025-10-16T06:15:32.522521+00:00,0.340000,2.652400,
2025-10-16T06:15:32.527521+00:00,0.345000,2.605660,
2025-10-16T06:15:32.532521+00:00,0.350000,2.561200,
2025-10-16T06:15:32.537521+00:00,0.355000,2.518260,
2025-10-16T06:15:32.542521+00:00,0.360000,2.467720,
2025-10-16T06:15:32.547521+00:00,0.365000,2.405780,
2025-10-16T06:15:32.552521+00:00,0.370000,2.344980,
2025-10-16T06:15:32.557521+00:00,0.375000,2.307360,
2025-10-16T06:15:32.562521+00:00,0.380000,2.295200,
2025-10-16T06:15:32.567521+00:00,0.385000,2.282660,
2025-10-16T06:15:32.572521+00:00,0.390000,2.256820,
2025-10-16T06:15:32.577521+00:00,0.395000,2.223000,
2025-10-16T06:15:32.582521+00:00,0.400000,2.190700,
2025-10-16T06:15:32.587521+00:00,0.405000,2.164480,
2025-10-16T06:15:32.592521+00:00,0.410000,2.137120,
2025-10-16T06:15:32.597521+00:00,0.415000,2.101020,
2025-10-16T06:15:32.602521+00:00,0.420000,2.061500,
2025-10-16T06:15:32.607521+00:00,0.425000,2.022740,
2025-10-16T06:15:32.612521+00:00,0.430000,1.983980,
2025-10-16T06:15:32.617521+00:00,0.435000,1.944080,
2025-10-16T06:15:32.622521+00:00,0.440000,1.912540,
2025-10-16T06:15:32.627521+00:00,0.445000,1.885940,
2025-10-16T06:15:32.632521+00:00,0.450000,1.858200,
2025-10-16T06:15:32.637521+00:00,0.455000,1.829700,
2025-10-16T06:15:32.642521+00:00,0.460000,1.798920,
2025-10-16T06:15:32.647521+00:00,0.465000,1.770800,
2025-10-16T06:15:32.652521+00:00,0.470000,1.745340,
2025-10-16T06:15:32.657521+00:00,0.475000,1.716080,
2025-10-16T06:15:32.662521+00:00,0.480000,1.682260,
2025-10-16T06:15:32.667521+00:00,0.485000,1.653380,
2025-10-16T06:15:32.672521+00:00,0.490000,1.627160,
2025-10-16T06:15:32.677521+00:00,0.495000,1.595240,
2025-10-16T06:15:32.682521+00:00,0.500000,1.556100,
2025-10-16T06:15:32.687521+00:00,0.505000,1.525700,
2025-10-16T06:15:32.692521+00:00,0.510000,1.511260,
2025-10-16T06:15:32.697521+00:00,0.515000,1.496060,
2025-10-16T06:15:32.702521+00:00,0.520000,1.466420,
2025-10-16T06:15:32.707521+00:00,0.525000,1.433360,
2025-10-16T06:15:32.712521+00:00,0.530000,1.415120,
2025-10-16T06:15:32.717521+00:00,0.535000,1.403340,
2025-10-16T06:15:32.722521+00:00,0.540000,1.384720,
2025-10-16T06:15:32.727521+00:00,0.545000,1.359260,
2025-10-16T06:15:32.732521+00:00,0.550000,1.336460,
2025-10-16T06:15:32.737521+00:00,0.555000,1.317080,
2025-10-16T06:15:32.742521+00:00,0.560000,1.295420,
2025-10-16T06:15:32.747521+00:00,0.565000,1.270720,
2025-10-16T06:15:32.752521+00:00,0.570000,1.250200,
2025-10-16T06:15:32.757521+00:00,0.575000,1.232340,
2025-10-16T06:15:32.762521+00:00,0.580000,1.214480,
2025-10-16T06:15:32.767521+00:00,0.585000,1.195480,
2025-10-16T06:15:32.772521+00:00,0.590000,1.179140,
2025-10-16T06:15:32.777521+00:00,0.595000,1.163940,
2025-10-16T06:15:32.782521+00:00,0.600000,1.144180,
2025-10-16T06:15:32.787521+00:00,0.605000,1.122140,
2025-10-16T06:15:32.792521+00:00,0.610000,1.101240,
2025-10-16T06:15:32.797521+00:00,0.615000,1.082620,
2025-10-16T06:15:32.802521+00:00,0.620000,1.062100,
2025-10-16T06:15:32.807521+00:00,0.625000,1.036640,
2025-10-16T06:15:32.812521+00:00,0.630000,1.008900,
2025-10-16T06:15:32.817521+00:00,0.635000,0.983820,
2025-10-16T06:15:32.822521+00:00,0.640000,0.973180,
2025-10-16T06:15:32.827521+00:00,0.645000,0.973940,
2025-10-16T06:15:32.832521+00:00,0.650000,0.971660,
2025-10-16T06:15:32.837521+00:00,0.655000,0.957600,
2025-10-16T06:15:32.842521+00:00,0.660000,0.935180,
2025-10-16T06:15:32.847521+00:00,0.665000,0.911240,
2025-10-16T06:15:32.852521+00:00,0.670000,0.891100,
2025-10-16T06:15:32.857521+00:00,0.675000,0.877800,
2025-10-16T06:15:32.862521+00:00,0.680000,0.865640,
2025-10-16T06:15:32.867521+00:00,0.685000,0.852720,
2025-10-16T06:15:32.872521+00:00,0.690000,0.841700,
2025-10-16T06:15:32.877521+00:00,0.695000,0.839040,
2025-10-16T06:15:32.882521+00:00,0.700000,0.835620,
2025-10-16T06:15:32.887521+00:00,0.705000,0.813960,
2025-10-16T06:15:32.892521+00:00,0.710000,0.778620,
2025-10-16T06:15:32.897521+00:00,0.715000,0.755820,
2025-10-16T06:15:32.902521+00:00,0.720000,0.760760,
2025-10-16T06:15:32.907521+00:00,0.725000,0.782420,
2025-10-16T06:15:32.912521+00:00,0.730000,0.786600,
2025-10-16T06:15:32.917521+00:00,0.735000,0.758100,
2025-10-16T06:15:32.922521+00:00,0.740000,0.717440,
2025-10-16T06:15:32.927521+00:00,0.745000,0.694260,
2025-10-16T06:15:32.932521+00:00,0.750000,0.695020,
2025-10-16T06:15:32.937521+00:00,0.755000,0.696160,
2025-10-16T06:15:32.942521+00:00,0.760000,0.679820,
2025-10-16T06:15:32.947521+00:00,0.765000,0.652460,
2025-10-16T06:15:32.952521+00:00,0.770000,0.639160,
2025-10-16T06:15:32.957521+00:00,0.775000,0.648280,
2025-10-16T06:15:32.962521+00:00,0.780000,0.659680,
2025-10-16T06:15:32.967521+00:00,0.785000,0.649040,
2025-10-16T06:15:32.972521+00:00,0.790000,0.623580,
2025-10-16T06:15:32.977521+00:00,0.795000,0.603060,
2025-10-16T06:15:32.982521+00:00,0.800000,0.591660,
2025-10-16T06:15:32.987521+00:00,0.805000,0.586340,
2025-10-16T06:15:32.992521+00:00,0.810000,0.579120,
2025-10-16T06:15:32.997521+00:00,0.815000,0.563160,
2025-10-16T06:15:33.002521+00:00,0.820000,0.539220,
2025-10-16T06:15:33.007521+00:00,0.825000,0.525540,
2025-10-16T06:15:33.012521+00:00,0.830000,0.531620,
2025-10-16T06:15:33.017521+00:00,0.835000,0.538840,
2025-10-16T06:15:33.022521+00:00,0.840000,0.526680,
2025-10-16T06:15:33.027521+00:00,0.845000,0.497420,
2025-10-16T06:15:33.032521+00:00,0.850000,0.469680,
2025-10-16T06:15:33.037521+00:00,0.855000,0.460560,
2025-10-16T06:15:33.042521+00:00,0.860000,0.462080,
2025-10-16T06:15:33.047521+00:00,0.865000,0.464740,
2025-10-16T06:15:33.052521+00:00,0.870000,0.458280,
2025-10-16T06:15:33.057521+00:00,0.875000,0.450680,
2025-10-16T06:15:33.062521+00:00,0.880000,0.446500,
2025-10-16T06:15:33.067521+00:00,0.885000,0.448400,
2025-10-16T06:15:33.072521+00:00,0.890000,0.451820,
2025-10-16T06:15:33.077521+00:00,0.895000,0.444980,
2025-10-16T06:15:33.082521+00:00,0.900000,0.427880,
2025-10-16T06:15:33.087521+00:00,0.905000,0.413820,
2025-10-16T06:15:33.092521+00:00,0.910000,0.407740,
2025-10-16T06:15:33.097521+00:00,0.915000,0.397860,
2025-10-16T06:15:33.102521+00:00,0.920000,0.379620,
2025-10-16T06:15:33.107521+00:00,0.925000,0.364800,
2025-10-16T06:15:33.112521+00:00,0.930000,0.360620,
2025-10-16T06:15:33.117521+00:00,0.935000,0.364040,
2025-10-16T06:15:33.122521+00:00,0.940000,0.367080,
2025-10-16T06:15:33.127521+00:00,0.945000,0.368600,
2025-10-16T06:15:33.132521+00:00,0.950000,0.368220,
2025-10-16T06:15:33.137521+00:00,0.955000,0.362900,
2025-10-16T06:15:33.142521+00:00,0.960000,0.352260,
2025-10-16T06:15:33.147521+00:00,0.965000,0.335920,
2025-10-16T06:15:33.152521+00:00,0.970000,0.318440,
2025-10-16T06:15:33.157521+00:00,0.975000,0.308940,
2025-10-16T06:15:33.162521+00:00,0.980000,0.307800,
2025-10-16T06:15:33.167521+00:00,0.985000,0.309320,
2025-10-16T06:15:33.172521+00:00,0.990000,0.305520,
2025-10-16T06:15:33.177521+00:00,0.995000,0.300200,
2025-10-16T06:15:33.182521+00:00,1.000000,0.303620,
2025-10-16T06:15:33.187521+00:00,1.005000,0.311980,
2025-10-16T06:15:33.192521+00:00,1.010000,0.313500,
2025-10-16T06:15:33.197521+00:00,1.015000,0.300960,
2025-10-16T06:15:33.202521+00:00,1.020000,0.285380,
2025-10-16T06:15:33.207521+00:00,1.025000,0.281200,
2025-10-16T06:15:33.212521+00:00,1.030000,0.278920,
2025-10-16T06:15:33.217521+00:00,1.035000,0.271320,
2025-10-16T06:15:33.222521+00:00,1.040000,0.262200,
2025-10-16T06:15:33.227521+00:00,1.045000,0.258020,
2025-10-16T06:15:33.232521+00:00,1.050000,0.255740,
2025-10-16T06:15:33.237521+00:00,1.055000,0.252320,
2025-10-16T06:15:33.242521+00:00,1.060000,0.246240,
2025-10-16T06:15:33.247521+00:00,1.065000,0.240920,
2025-10-16T06:15:33.252521+00:00,1.070000,0.231420,
2025-10-16T06:15:33.257521+00:00,1.075000,0.218120,
2025-10-16T06:15:33.262521+00:00,1.080000,0.206720,
2025-10-16T06:15:33.267521+00:00,1.085000,0.205960,
2025-10-16T06:15:33.272521+00:00,1.090000,0.216980,
2025-10-16T06:15:33.277521+00:00,1.095000,0.226860,
2025-10-16T06:15:33.282521+00:00,1.100000,0.218500,
2025-10-16T06:15:33.287521+00:00,1.105000,0.194180,
2025-10-16T06:15:33.292521+00:00,1.110000,0.171760,
2025-10-16T06:15:33.297521+00:00,1.115000,0.162260,
2025-10-16T06:15:33.302521+00:00,1.120000,0.164160,
2025-10-16T06:15:33.307521+00:00,1.125000,0.166440,
2025-10-16T06:15:33.312521+00:00,1.130000,0.163020,
2025-10-16T06:15:33.317521+00:00,1.135000,0.154660,
2025-10-16T06:15:33.322521+00:00,1.140000,0.153900,
2025-10-16T06:15:33.327521+00:00,1.145000,0.165680,
2025-10-16T06:15:33.332521+00:00,1.150000,0.181640,
2025-10-16T06:15:33.337521+00:00,1.155000,0.187340,
2025-10-16T06:15:33.342521+00:00,1.160000,0.183540,
2025-10-16T06:15:33.347521+00:00,1.165000,0.177080,
2025-10-16T06:15:33.352521+00:00,1.170000,0.169860,
2025-10-16T06:15:33.357521+00:00,1.175000,0.161120,
2025-10-16T06:15:33.362521+00:00,1.180000,0.158840,
2025-10-16T06:15:33.367521+00:00,1.185000,0.158840,
2025-10-16T06:15:33.372521+00:00,1.190000,0.156940,
2025-10-16T06:15:33.377521+00:00,1.195000,0.144780,
2025-10-16T06:15:33.382521+00:00,1.200000,0.132620,
2025-10-16T06:15:33.387521+00:00,1.205000,0.128440,
2025-10-16T06:15:33.392521+00:00,1.210000,0.135280,
2025-10-16T06:15:33.397521+00:00,1.215000,0.137560,
2025-10-16T06:15:33.402521+00:00,1.220000,0.126920,
2025-10-16T06:15:33.407521+00:00,1.225000,0.115140,
2025-10-16T06:15:33.412521+00:00,1.230000,0.110580,
2025-10-16T06:15:33.417521+00:00,1.235000,0.113240,
2025-10-16T06:15:33.422521+00:00,1.240000,0.118560,
2025-10-16T06:15:33.427521+00:00,1.245000,0.118940,
2025-10-16T06:15:33.432521+00:00,1.250000,0.113620,
2025-10-16T06:15:33.437521+00:00,1.255000,0.116280,
2025-10-16T06:15:33.442521+00:00,1.260000,0.129580,
2025-10-16T06:15:33.447521+00:00,1.265000,0.135660,
2025-10-16T06:15:33.452521+00:00,1.270000,0.126540,
2025-10-16T06:15:33.457521+00:00,1.275000,0.112480,
2025-10-16T06:15:33.462521+00:00,1.280000,0.104880,
2025-10-16T06:15:33.467521+00:00,1.285000,0.104880,
2025-10-16T06:15:33.472521+00:00,1.290000,0.101080,
2025-10-16T06:15:33.477521+00:00,1.295000,0.090060,
2025-10-16T06:15:33.482521+00:00,1.300000,0.079040,
2025-10-16T06:15:33.487521+00:00,1.305000,0.072580,
2025-10-16T06:15:33.492521+00:00,1.310000,0.066120,
2025-10-16T06:15:33.497521+00:00,1.315000,0.059660,
2025-10-16T06:15:33.502521+00:00,1.320000,0.056620,
2025-10-16T06:15:33.507521+00:00,1.325000,0.056240,
2025-10-16T06:15:33.512521+00:00,1.330000,0.058140,
2025-10-16T06:15:33.517521+00:00,1.335000,0.061940,
2025-10-16T06:15:33.522521+00:00,1.340000,0.068780,
2025-10-16T06:15:33.527521+00:00,1.345000,0.070680,
2025-10-16T06:15:33.532521+00:00,1.350000,0.068780,
2025-10-16T06:15:33.537521+00:00,1.355000,0.061180,
2025-10-16T06:15:33.542521+00:00,1.360000,0.050160,
2025-10-16T06:15:33.547521+00:00,1.365000,0.047120,
2025-10-16T06:15:33.552521+00:00,1.370000,0.056620,
2025-10-16T06:15:33.557521+00:00,1.375000,0.074100,
2025-10-16T06:15:33.562521+00:00,1.380000,0.084740,
2025-10-16T06:15:33.567521+00:00,1.385000,0.080180,
2025-10-16T06:15:33.572521+00:00,1.390000,0.062700,
2025-10-16T06:15:33.577521+00:00,1.395000,0.044840,
2025-10-16T06:15:33.582521+00:00,1.400000,0.032300,
2025-10-16T06:15:33.587521+00:00,1.405000,0.027740,
2025-10-16T06:15:33.592521+00:00,1.410000,0.032300,
2025-10-16T06:15:33.597521+00:00,1.415000,0.044080,
2025-10-16T06:15:33.602521+00:00,1.420000,0.051300,
2025-10-16T06:15:33.607521+00:00,1.425000,0.050540,
2025-10-16T06:15:33.612521+00:00,1.430000,0.044460,
2025-10-16T06:15:33.617521+00:00,1.435000,0.035340,
2025-10-16T06:15:33.622521+00:00,1.440000,0.029640,
2025-10-16T06:15:33.627521+00:00,1.445000,0.031160,
2025-10-16T06:15:33.632521+00:00,1.450000,0.041800,
2025-10-16T06:15:33.637521+00:00,1.455000,0.050160,
2025-10-16T06:15:33.642521+00:00,1.460000,0.044460,
2025-10-16T06:15:33.647521+00:00,1.465000,0.028120,
2025-10-16T06:15:33.652521+00:00,1.470000,0.020140,
2025-10-16T06:15:33.657521+00:00,1.475000,0.029260,
2025-10-16T06:15:33.662521+00:00,1.480000,0.040660,
2025-10-16T06:15:33.667521+00:00,1.485000,0.038000,
2025-10-16T06:15:33.672521+00:00,1.490000,0.031540,
2025-10-16T06:15:33.677521+00:00,1.495000,0.032680,
2025-10-16T06:15:33.682521+00:00,1.500000,0.034200,
2025-10-16T06:15:33.687521+00:00,1.505000,0.018620,
2025-10-16T06:15:33.692521+00:00,1.510000,0.001900,
2025-10-16T06:15:33.697521+00:00,1.515000,0.000380,
2025-10-16T06:15:33.702521+00:00,1.520000,0.009880,
2025-10-16T06:15:33.707521+00:00,1.525000,0.013300,
2025-10-16T06:15:33.712521+00:00,1.530000,0.012920,
2025-10-16T06:15:33.717521+00:00,1.535000,0.018240,
2025-10-16T06:15:33.722521+00:00,1.540000,0.032300,
2025-10-16T06:15:33.727521+00:00,1.545000,0.033440,
2025-10-16T06:15:33.732521+00:00,1.550000,0.018620,
2025-10-16T06:15:33.737521+00:00,1.555000,0.005700,
2025-10-16T06:15:33.742521+00:00,1.560000,0.011780,
2025-10-16T06:15:33.747521+00:00,1.565000,0.020900,
2025-10-16T06:15:33.752521+00:00,1.570000,0.015580,
2025-10-16T06:15:33.757521+00:00,1.575000,0.002660,
2025-10-16T06:15:33.762521+00:00,1.580000,0.002280,
2025-10-16T06:15:33.767521+00:00,1.585000,0.012540,
2025-10-16T06:15:33.772521+00:00,1.590000,0.012920,
2025-10-16T06:15:33.777521+00:00,1.595000,-0.003420,
2025-10-16T06:15:33.782521+00:00,1.600000,-0.013300,
2025-10-16T06:15:33.787521+00:00,1.605000,-0.003800,
2025-10-16T06:15:33.792521+00:00,1.610000,0.011780,
2025-10-16T06:15:33.797521+00:00,1.615000,0.015200,
2025-10-16T06:15:33.802521+00:00,1.620000,0.011020,
2025-10-16T06:15:33.807521+00:00,1.625000,0.010640,
2025-10-16T06:15:33.812521+00:00,1.630000,0.014060,
2025-10-16T06:15:33.817521+00:00,1.635000,0.011780,
2025-10-16T06:15:33.822521+00:00,1.640000,0.003800,
2025-10-16T06:15:33.827521+00:00,1.645000,-0.001520,
2025-10-16T06:15:33.832521+00:00,1.650000,-0.004560,
2025-10-16T06:15:33.837521+00:00,1.655000,-0.004560,
2025-10-16T06:15:33.842521+00:00,1.660000,0.006840,
2025-10-16T06:15:33.847521+00:00,1.665000,0.022040,
2025-10-16T06:15:33.852521+00:00,1.670000,0.025080,
2025-10-16T06:15:33.857521+00:00,1.675000,0.011780,
2025-10-16T06:15:33.862521+00:00,1.680000,0.000000,
2025-10-16T06:15:33.867521+00:00,1.685000,-0.001520,
2025-10-16T06:15:33.872521+00:00,1.690000,0.006840,
2025-10-16T06:15:33.877521+00:00,1.695000,0.011020,
2025-10-16T06:15:33.882521+00:00,1.700000,0.003420,
2025-10-16T06:15:33.887521+00:00,1.705000,-0.005700,
2025-10-16T06:15:33.892521+00:00,1.710000,0.003420,
2025-10-16T06:15:33.897521+00:00,1.715000,0.018240,
2025-10-16T06:15:33.902521+00:00,1.720000,0.017860,
2025-10-16T06:15:33.907521+00:00,1.725000,-0.000380,
2025-10-16T06:15:33.912521+00:00,1.730000,-0.015960,
2025-10-16T06:15:33.917521+00:00,1.735000,-0.012160,
2025-10-16T06:15:33.922521+00:00,1.740000,0.003040,
2025-10-16T06:15:33.927521+00:00,1.745000,0.009120,
2025-10-16T06:15:33.932521+00:00,1.750000,-0.006080,
2025-10-16T06:15:33.937521+00:00,1.755000,-0.026980,
2025-10-16T06:15:33.942521+00:00,1.760000,-0.028500,
2025-10-16T06:15:33.947521+00:00,1.765000,-0.009120,
2025-10-16T06:15:33.952521+00:00,1.770000,0.012540,
2025-10-16T06:15:33.957521+00:00,1.775000,0.012540,
2025-10-16T06:15:33.962521+00:00,1.780000,-0.003040,
2025-10-16T06:15:33.967521+00:00,1.785000,-0.016720,
2025-10-16T06:15:33.972521+00:00,1.790000,-0.020520,
2025-10-16T06:15:33.977521+00:00,1.795000,-0.021280,
2025-10-16T06:15:33.982521+00:00,1.800000,-0.023940,
2025-10-16T06:15:33.987521+00:00,1.805000,-0.020900,
2025-10-16T06:15:33.992521+00:00,1.810000,-0.010640,
2025-10-16T06:15:33.997521+00:00,1.815000,-0.009500,
2025-10-16T06:15:34.002521+00:00,1.820000,-0.020520,
2025-10-16T06:15:34.007521+00:00,1.825000,-0.031920,
2025-10-16T06:15:34.012521+00:00,1.830000,-0.031540,
2025-10-16T06:15:34.017521+00:00,1.835000,-0.024320,
2025-10-16T06:15:34.022521+00:00,1.840000,-0.017860,
2025-10-16T06:15:34.027521+00:00,1.845000,-0.015960,
2025-10-16T06:15:34.032521+00:00,1.850000,-0.024700,
2025-10-16T06:15:34.037521+00:00,1.855000,-0.037240,
2025-10-16T06:15:34.042521+00:00,1.860000,-0.042940,
2025-10-16T06:15:34.047521+00:00,1.865000,-0.037240,
2025-10-16T06:15:34.052521+00:00,1.870000,-0.028500,
2025-10-16T06:15:34.057521+00:00,1.875000,-0.027360,
2025-10-16T06:15:34.062521+00:00,1.880000,-0.035720,
2025-10-16T06:15:34.067521+00:00,1.885000,-0.042180,
2025-10-16T06:15:34.072521+00:00,1.890000,-0.038000,
2025-10-16T06:15:34.077521+00:00,1.895000,-0.027360,
2025-10-16T06:15:34.082521+00:00,1.900000,-0.020900,
2025-10-16T06:15:34.087521+00:00,1.905000,-0.018240,
2025-10-16T06:15:34.092521+00:00,1.910000,-0.020140,
2025-10-16T06:15:34.097521+00:00,1.915000,-0.026220,
2025-10-16T06:15:34.102521+00:00,1.920000,-0.031540,
2025-10-16T06:15:34.107521+00:00,1.925000,-0.035720,
2025-10-16T06:15:34.112521+00:00,1.930000,-0.033060,
2025-10-16T06:15:34.117521+00:00,1.935000,-0.024700,
2025-10-16T06:15:34.122521+00:00,1.940000,-0.019760,
2025-10-16T06:15:34.127521+00:00,1.945000,-0.024700,
2025-10-16T06:15:34.132521+00:00,1.950000,-0.032300,
2025-10-16T06:15:34.137521+00:00,1.955000,-0.031540,
2025-10-16T06:15:34.142521+00:00,1.960000,-0.023180,
2025-10-16T06:15:34.147521+00:00,1.965000,-0.014440,
2025-10-16T06:15:34.152521+00:00,1.970000,-0.014820,
2025-10-16T06:15:34.157521+00:00,1.975000,-0.022420,
2025-10-16T06:15:34.162521+00:00,1.980000,-0.028120,
2025-10-16T06:15:34.167521+00:00,1.985000,-0.024700,
2025-10-16T06:15:34.172521+00:00,1.990000,-0.014440,
2025-10-16T06:15:34.177521+00:00,1.995000,-0.002280,
2025-10-16T06:15:34.182521+00:00,2.000000,-0.002280,
2025-10-16T06:15:34.187521+00:00,2.005000,-0.017860,
2025-10-16T06:15:34.192521+00:00,2.010000,-0.030020,
2025-10-16T06:15:34.197521+00:00,2.015000,-0.023940,
2025-10-16T06:15:34.202521+00:00,2.020000,-0.013300,
2025-10-16T06:15:34.207521+00:00,2.025000,-0.011020,
2025-10-16T06:15:34.212521+00:00,2.030000,-0.014820,
2025-10-16T06:15:34.217521+00:00,2.035000,-0.021280,
2025-10-16T06:15:34.222521+00:00,2.040000,-0.026980,
2025-10-16T06:15:34.227521+00:00,2.045000,-0.027360,
2025-10-16T06:15:34.232521+00:00,2.050000,-0.024320,
2025-10-16T06:15:34.237521+00:00,2.055000,-0.022420,
2025-10-16T06:15:34.242521+00:00,2.060000,-0.022040,
2025-10-16T06:15:34.247521+00:00,2.065000,-0.033060,
2025-10-16T06:15:34.252521+00:00,2.070000,-0.045980,
2025-10-16T06:15:34.257521+00:00,2.075000,-0.045600,
2025-10-16T06:15:34.262521+00:00,2.080000,-0.034580,
2025-10-16T06:15:34.267521+00:00,2.085000,-0.027740,
2025-10-16T06:15:34.272521+00:00,2.090000,-0.027360,
2025-10-16T06:15:34.277521+00:00,2.095000,-0.026980,
2025-10-16T06:15:34.282521+00:00,2.100000,-0.025840,
2025-10-16T06:15:34.287521+00:00,2.105000,-0.026600,
2025-10-16T06:15:34.292521+00:00,2.110000,-0.033820,
2025-10-16T06:15:34.297521+00:00,2.115000,-0.041040,
2025-10-16T06:15:34.302521+00:00,2.120000,-0.042180,
2025-10-16T06:15:34.307521+00:00,2.125000,-0.035340,
2025-10-16T06:15:34.312521+00:00,2.130000,-0.030020,
2025-10-16T06:15:34.317521+00:00,2.135000,-0.028880,
2025-10-16T06:15:34.322521+00:00,2.140000,-0.029260,
2025-10-16T06:15:34.327521+00:00,2.145000,-0.028120,
2025-10-16T06:15:34.332521+00:00,2.150000,-0.024320,
2025-10-16T06:15:34.337521+00:00,2.155000,-0.015200,
2025-10-16T06:15:34.342521+00:00,2.160000,-0.012160,
2025-10-16T06:15:34.347521+00:00,2.165000,-0.026980,
2025-10-16T06:15:34.352521+00:00,2.170000,-0.044840,
2025-10-16T06:15:34.357521+00:00,2.175000,-0.042560,
2025-10-16T06:15:34.362521+00:00,2.180000,-0.021660,
2025-10-16T06:15:34.367521+00:00,2.185000,-0.008360,
2025-10-16T06:15:34.372521+00:00,2.190000,-0.017480,
2025-10-16T06:15:34.377521+00:00,2.195000,-0.034200,
2025-10-16T06:15:34.382521+00:00,2.200000,-0.039140,
2025-10-16T06:15:34.387521+00:00,2.205000,-0.025460,
2025-10-16T06:15:34.392521+00:00,2.210000,-0.009500,
2025-10-16T06:15:34.397521+00:00,2.215000,-0.003040,
2025-10-16T06:15:34.402521+00:00,2.220000,-0.008740,
2025-10-16T06:15:34.407521+00:00,2.225000,-0.020900,
2025-10-16T06:15:34.412521+00:00,2.230000,-0.031160,
2025-10-16T06:15:34.417521+00:00,2.235000,-0.033820,
2025-10-16T06:15:34.422521+00:00,2.240000,-0.026220,
2025-10-16T06:15:34.427521+00:00,2.245000,-0.011780,
2025-10-16T06:15:34.432521+00:00,2.250000,-0.003800,
2025-10-16T06:15:34.437521+00:00,2.255000,-0.008740,
2025-10-16T06:15:34.442521+00:00,2.260000,-0.018620,
2025-10-16T06:15:34.447521+00:00,2.265000,-0.021280,
2025-10-16T06:15:34.452521+00:00,2.270000,-0.013680,
2025-10-16T06:15:34.457521+00:00,2.275000,-0.006460,
2025-10-16T06:15:34.462521+00:00,2.280000,-0.011400,
2025-10-16T06:15:34.467521+00:00,2.285000,-0.024700,
2025-10-16T06:15:34.472521+00:00,2.290000,-0.026220,
2025-10-16T06:15:34.477521+00:00,2.295000,-0.019000,
2025-10-16T06:15:34.482521+00:00,2.300000,-0.017100,
2025-10-16T06:15:34.487521+00:00,2.305000,-0.027740,
2025-10-16T06:15:34.492521+00:00,2.310000,-0.035340,
2025-10-16T06:15:34.497521+00:00,2.315000,-0.031920,
2025-10-16T06:15:34.502521+00:00,2.320000,-0.018620,
2025-10-16T06:15:34.507521+00:00,2.325000,-0.005700,
2025-10-16T06:15:34.512521+00:00,2.330000,-0.001520,
2025-10-16T06:15:34.517521+00:00,2.335000,-0.013300,
2025-10-16T06:15:34.522521+00:00,2.340000,-0.027360,
2025-10-16T06:15:34.527521+00:00,2.345000,-0.036100,
2025-10-16T06:15:34.532521+00:00,2.350000,-0.036860,
2025-10-16T06:15:34.537521+00:00,2.355000,-0.030780,
2025-10-16T06:15:34.542521+00:00,2.360000,-0.024700,
2025-10-16T06:15:34.547521+00:00,2.365000,-0.022800,
2025-10-16T06:15:34.552521+00:00,2.370000,-0.024700,
2025-10-16T06:15:34.557521+00:00,2.375000,-0.031540,
2025-10-16T06:15:34.562521+00:00,2.380000,-0.038760,
2025-10-16T06:15:34.567521+00:00,2.385000,-0.038760,
2025-10-16T06:15:34.572521+00:00,2.390000,-0.034200,
2025-10-16T06:15:34.577521+00:00,2.395000,-0.034200,
2025-10-16T06:15:34.582521+00:00,2.400000,-0.039520,
2025-10-16T06:15:34.587521+00:00,2.405000,-0.039900,
2025-10-16T06:15:34.592521+00:00,2.410000,-0.036860,
2025-10-16T06:15:34.597521+00:00,2.415000,-0.038380,
2025-10-16T06:15:34.602521+00:00,2.420000,-0.046740,
2025-10-16T06:15:34.607521+00:00,2.425000,-0.052060,
2025-10-16T06:15:34.612521+00:00,2.430000,-0.045980,
2025-10-16T06:15:34.617521+00:00,2.435000,-0.035720,
2025-10-16T06:15:34.622521+00:00,2.440000,-0.031540,
2025-10-16T06:15:34.627521+00:00,2.445000,-0.034580,
2025-10-16T06:15:34.632521+00:00,2.450000,-0.039520,
2025-10-16T06:15:34.637521+00:00,2.455000,-0.042560,
2025-10-16T06:15:34.642521+00:00,2.460000,-0.044840,
2025-10-16T06:15:34.647521+00:00,2.465000,-0.047500,
2025-10-16T06:15:34.652521+00:00,2.470000,-0.057000,
2025-10-16T06:15:34.657521+00:00,2.475000,-0.064980,
2025-10-16T06:15:34.662521+00:00,2.480000,-0.063460,
2025-10-16T06:15:34.667521+00:00,2.485000,-0.053200,
2025-10-16T06:15:34.672521+00:00,2.490000,-0.044080,
2025-10-16T06:15:34.677521+00:00,2.495000,-0.040660,
2025-10-16T06:15:34.682521+00:00,2.500000,-0.040280,
2025-10-16T06:15:34.687521+00:00,2.505000,-0.038760,
2025-10-16T06:15:34.692521+00:00,2.510000,-0.035720,
2025-10-16T06:15:34.697521+00:00,2.515000,-0.034960,
2025-10-16T06:15:34.702521+00:00,2.520000,-0.036480,
2025-10-16T06:15:34.707521+00:00,2.525000,-0.033440,
2025-10-16T06:15:34.712521+00:00,2.530000,-0.027740,
2025-10-16T06:15:34.717521+00:00,2.535000,-0.033060,
2025-10-16T06:15:34.722521+00:00,2.540000,-0.048640,
2025-10-16T06:15:34.727521+00:00,2.545000,-0.058140,
2025-10-16T06:15:34.732521+00:00,2.550000,-0.053960,
2025-10-16T06:15:34.737521+00:00,2.555000,-0.039520,
2025-10-16T06:15:34.742521+00:00,2.560000,-0.025460,
2025-10-16T06:15:34.747521+00:00,2.565000,-0.023560,
2025-10-16T06:15:34.752521+00:00,2.570000,-0.032680,
2025-10-16T06:15:34.757521+00:00,2.575000,-0.036860,
2025-10-16T06:15:34.762521+00:00,2.580000,-0.030400,
2025-10-16T06:15:34.767521+00:00,2.585000,-0.025080,
2025-10-16T06:15:34.772521+00:00,2.590000,-0.028120,
2025-10-16T06:15:34.777521+00:00,2.595000,-0.034200,
2025-10-16T06:15:34.782521+00:00,2.600000,-0.036100,
2025-10-16T06:15:34.787521+00:00,2.605000,-0.036860,
2025-10-16T06:15:34.792521+00:00,2.610000,-0.039900,
2025-10-16T06:15:34.797521+00:00,2.615000,-0.041420,
2025-10-16T06:15:34.802521+00:00,2.620000,-0.031920,
2025-10-16T06:15:34.807521+00:00,2.625000,-0.020140,
2025-10-16T06:15:34.812521+00:00,2.630000,-0.022800,
2025-10-16T06:15:34.817521+00:00,2.635000,-0.038380,
2025-10-16T06:15:34.822521+00:00,2.640000,-0.050920,
2025-10-16T06:15:34.827521+00:00,2.645000,-0.050160,
2025-10-16T06:15:34.832521+00:00,2.650000,-0.044840,
2025-10-16T06:15:34.837521+00:00,2.655000,-0.043320,
2025-10-16T06:15:34.842521+00:00,2.660000,-0.048260,
2025-10-16T06:15:34.847521+00:00,2.665000,-0.048640,
2025-10-16T06:15:34.852521+00:00,2.670000,-0.042180,
2025-10-16T06:15:34.857521+00:00,2.675000,-0.036860,
2025-10-16T06:15:34.862521+00:00,2.680000,-0.039900,
2025-10-16T06:15:34.867521+00:00,2.685000,-0.046360,
2025-10-16T06:15:34.872521+00:00,2.690000,-0.039900,
2025-10-16T06:15:34.877521+00:00,2.695000,-0.025460,
2025-10-16T06:15:34.882521+00:00,2.700000,-0.025080,
2025-10-16T06:15:34.887521+00:00,2.705000,-0.038760,
2025-10-16T06:15:34.892521+00:00,2.710000,-0.046360,
2025-10-16T06:15:34.897521+00:00,2.715000,-0.042560,
2025-10-16T06:15:34.902521+00:00,2.720000,-0.039140,
2025-10-16T06:15:34.907521+00:00,2.725000,-0.043320,
2025-10-16T06:15:34.912521+00:00,2.730000,-0.052060,
2025-10-16T06:15:34.917521+00:00,2.735000,-0.055100,
2025-10-16T06:15:34.922521+00:00,2.740000,-0.052060,
2025-10-16T06:15:34.927521+00:00,2.745000,-0.051300,
2025-10-16T06:15:34.932521+00:00,2.750000,-0.048640,
2025-10-16T06:15:34.937521+00:00,2.755000,-0.041420,
2025-10-16T06:15:34.942521+00:00,2.760000,-0.037620,
2025-10-16T06:15:34.947521+00:00,2.765000,-0.042560,
2025-10-16T06:15:34.952521+00:00,2.770000,-0.050920,
2025-10-16T06:15:34.957521+00:00,2.775000,-0.051300,
2025-10-16T06:15:34.962521+00:00,2.780000,-0.044840,
2025-10-16T06:15:34.967521+00:00,2.785000,-0.039140,
2025-10-16T06:15:34.972521+00:00,2.790000,-0.038760,
2025-10-16T06:15:34.977521+00:00,2.795000,-0.042560,
2025-10-16T06:15:34.982521+00:00,2.800000,-0.044080,
2025-10-16T06:15:34.987521+00:00,2.805000,-0.038760,
2025-10-16T06:15:34.992521+00:00,2.810000,-0.030020,
2025-10-16T06:15:34.997521+00:00,2.815000,-0.028880,
2025-10-16T06:15:35.002521+00:00,2.820000,-0.041040,
2025-10-16T06:15:35.007521+00:00,2.825000,-0.052060,
2025-10-16T06:15:35.012521+00:00,2.830000,-0.050920,
2025-10-16T06:15:35.017521+00:00,2.835000,-0.039520,
2025-10-16T06:15:35.022521+00:00,2.840000,-0.027360,
2025-10-16T06:15:35.027521+00:00,2.845000,-0.020520,
2025-10-16T06:15:35.032521+00:00,2.850000,-0.026220,
2025-10-16T06:15:35.037521+00:00,2.855000,-0.042180,
2025-10-16T06:15:35.042521+00:00,2.860000,-0.058520,
2025-10-16T06:15:35.047521+00:00,2.865000,-0.060040,
2025-10-16T06:15:35.052521+00:00,2.870000,-0.047500,
2025-10-16T06:15:35.057521+00:00,2.875000,-0.031920,
2025-10-16T06:15:35.062521+00:00,2.880000,-0.026980,
2025-10-16T06:15:35.067521+00:00,2.885000,-0.033820,
2025-10-16T06:15:35.072521+00:00,2.890000,-0.040280,
2025-10-16T06:15:35.077521+00:00,2.895000,-0.038760,
2025-10-16T06:15:35.082521+00:00,2.900000,-0.028880,
2025-10-16T06:15:35.087521+00:00,2.905000,-0.026220,
2025-10-16T06:15:35.092521+00:00,2.910000,-0.038760,
2025-10-16T06:15:35.097521+00:00,2.915000,-0.051680,
2025-10-16T06:15:35.102521+00:00,2.920000,-0.050540,
2025-10-16T06:15:35.107521+00:00,2.925000,-0.036100,
2025-10-16T06:15:35.112521+00:00,2.930000,-0.025840,
2025-10-16T06:15:35.117521+00:00,2.935000,-0.023180,
2025-10-16T06:15:35.122521+00:00,2.940000,-0.022420,
2025-10-16T06:15:35.127521+00:00,2.945000,-0.021660,
2025-10-16T06:15:35.132521+00:00,2.950000,-0.028880,
2025-10-16T06:15:35.137521+00:00,2.955000,-0.039520,
2025-10-16T06:15:35.142521+00:00,2.960000,-0.044080,
2025-10-16T06:15:35.147521+00:00,2.965000,-0.032680,
2025-10-16T06:15:35.152521+00:00,2.970000,-0.022420,
2025-10-16T06:15:35.157521+00:00,2.975000,-0.026980,
2025-10-16T06:15:35.162521+00:00,2.980000,-0.041040,
2025-10-16T06:15:35.167521+00:00,2.985000,-0.048260,
2025-10-16T06:15:35.172521+00:00,2.990000,-0.039140,
2025-10-16T06:15:35.177521+00:00,2.995000,-0.025460,
2025-10-16T06:15:35.182521+00:00,3.000000,-0.020140,
2025-10-16T06:15:35.187521+00:00,3.005000,-0.029260,
2025-10-16T06:15:35.192521+00:00,3.010000,-0.037620,
2025-10-16T06:15:35.197521+00:00,3.015000,-0.039520,
2025-10-16T06:15:35.202521+00:00,3.020000,-0.040280,
2025-10-16T06:15:35.207521+00:00,3.025000,-0.041040,
2025-10-16T06:15:35.212521+00:00,3.030000,-0.034200,
2025-10-16T06:15:35.217521+00:00,3.035000,-0.025840,
2025-10-16T06:15:35.222521+00:00,3.040000,-0.027740,
2025-10-16T06:15:35.227521+00:00,3.045000,-0.041800,
2025-10-16T06:15:35.232521+00:00,3.050000,-0.055480,
2025-10-16T06:15:35.237521+00:00,3.055000,-0.057760,
2025-10-16T06:15:35.242521+00:00,3.060000,-0.045220,
2025-10-16T06:15:35.247521+00:00,3.065000,-0.028120,
2025-10-16T06:15:35.252521+00:00,3.070000,-0.020900,
2025-10-16T06:15:35.257521+00:00,3.075000,-0.025460,
2025-10-16T06:15:35.262521+00:00,3.080000,-0.029640,
2025-10-16T06:15:35.267521+00:00,3.085000,-0.028120,
2025-10-16T06:15:35.272521+00:00,3.090000,-0.027360,
2025-10-16T06:15:35.277521+00:00,3.095000,-0.035720,
2025-10-16T06:15:35.282521+00:00,3.100000,-0.052440,
2025-10-16T06:15:35.287521+00:00,3.105000,-0.064980,
2025-10-16T06:15:35.292521+00:00,3.110000,-0.064220,
2025-10-16T06:15:35.297521+00:00,3.115000,-0.053580,
2025-10-16T06:15:35.302521+00:00,3.120000,-0.038380,
2025-10-16T06:15:35.307521+00:00,3.125000,-0.025080,
2025-10-16T06:15:35.312521+00:00,3.130000,-0.022420,
2025-10-16T06:15:35.317521+00:00,3.135000,-0.036100,
2025-10-16T06:15:35.322521+00:00,3.140000,-0.047120,
2025-10-16T06:15:35.327521+00:00,3.145000,-0.041800,
2025-10-16T06:15:35.332521+00:00,3.150000,-0.028880,
2025-10-16T06:15:35.337521+00:00,3.155000,-0.022040,
2025-10-16T06:15:35.342521+00:00,3.160000,-0.022040,
2025-10-16T06:15:35.347521+00:00,3.165000,-0.019380,
2025-10-16T06:15:35.352521+00:00,3.170000,-0.018620,
2025-10-16T06:15:35.357521+00:00,3.175000,-0.022800,
2025-10-16T06:15:35.362521+00:00,3.180000,-0.031160,
2025-10-16T06:15:35.367521+00:00,3.185000,-0.033820,
2025-10-16T06:15:35.372521+00:00,3.190000,-0.034960,
2025-10-16T06:15:35.377521+00:00,3.195000,-0.037240,
2025-10-16T06:15:35.382521+00:00,3.200000,-0.035340,
2025-10-16T06:15:35.387521+00:00,3.205000,-0.027740,
2025-10-16T06:15:35.392521+00:00,3.210000,-0.022040,
2025-10-16T06:15:35.397521+00:00,3.215000,-0.029640,
2025-10-16T06:15:35.402521+00:00,3.220000,-0.043700,
2025-10-16T06:15:35.407521+00:00,3.225000,-0.050920,
2025-10-16T06:15:35.412521+00:00,3.230000,-0.045220,
2025-10-16T06:15:35.417521+00:00,3.235000,-0.038760,
2025-10-16T06:15:35.422521+00:00,3.240000,-0.034960,
2025-10-16T06:15:35.427521+00:00,3.245000,-0.034960,
2025-10-16T06:15:35.432521+00:00,3.250000,-0.034960,
2025-10-16T06:15:35.437521+00:00,3.255000,-0.036860,
2025-10-16T06:15:35.442521+00:00,3.260000,-0.041420,
2025-10-16T06:15:35.447521+00:00,3.265000,-0.045980,
2025-10-16T06:15:35.452521+00:00,3.270000,-0.047880,
2025-10-16T06:15:35.457521+00:00,3.275000,-0.046360,
2025-10-16T06:15:35.462521+00:00,3.280000,-0.039140,
2025-10-16T06:15:35.467521+00:00,3.285000,-0.032680,
2025-10-16T06:15:35.472521+00:00,3.290000,-0.029260,
2025-10-16T06:15:35.477521+00:00,3.295000,-0.034580,
2025-10-16T06:15:35.482521+00:00,3.300000,-0.042560,
2025-10-16T06:15:35.487521+00:00,3.305000,-0.046360,
2025-10-16T06:15:35.492521+00:00,3.310000,-0.038380,
2025-10-16T06:15:35.497521+00:00,3.315000,-0.026980,
2025-10-16T06:15:35.502521+00:00,3.320000,-0.024320,
2025-10-16T06:15:35.507521+00:00,3.325000,-0.028500,
2025-10-16T06:15:35.512521+00:00,3.330000,-0.029640,
2025-10-16T06:15:35.517521+00:00,3.335000,-0.028120,
2025-10-16T06:15:35.522521+00:00,3.340000,-0.026600,
2025-10-16T06:15:35.527521+00:00,3.345000,-0.030400,
2025-10-16T06:15:35.532521+00:00,3.350000,-0.036480,
2025-10-16T06:15:35.537521+00:00,3.355000,-0.039900,
2025-10-16T06:15:35.542521+00:00,3.360000,-0.047120,
2025-10-16T06:15:35.547521+00:00,3.365000,-0.055860,
2025-10-16T06:15:35.552521+00:00,3.370000,-0.062320,
2025-10-16T06:15:35.557521+00:00,3.375000,-0.057380,
2025-10-16T06:15:35.562521+00:00,3.380000,-0.041420,
2025-10-16T06:15:35.567521+00:00,3.385000,-0.027360,
2025-10-16T06:15:35.572521+00:00,3.390000,-0.029640,
2025-10-16T06:15:35.577521+00:00,3.395000,-0.039900,
2025-10-16T06:15:35.582521+00:00,3.400000,-0.046360,
2025-10-16T06:15:35.587521+00:00,3.405000,-0.044460,
2025-10-16T06:15:35.592521+00:00,3.410000,-0.041040,
2025-10-16T06:15:35.597521+00:00,3.415000,-0.038000,
2025-10-16T06:15:35.602521+00:00,3.420000,-0.034200,
2025-10-16T06:15:35.607521+00:00,3.425000,-0.026980,
2025-10-16T06:15:35.612521+00:00,3.430000,-0.020520,
2025-10-16T06:15:35.617521+00:00,3.435000,-0.021280,
2025-10-16T06:15:35.622521+00:00,3.440000,-0.029260,
2025-10-16T06:15:35.627521+00:00,3.445000,-0.039900,
2025-10-16T06:15:35.632521+00:00,3.450000,-0.052440,
2025-10-16T06:15:35.637521+00:00,3.455000,-0.052820,
2025-10-16T06:15:35.642521+00:00,3.460000,-0.041420,
2025-10-16T06:15:35.647521+00:00,3.465000,-0.034200,
2025-10-16T06:15:35.652521+00:00,3.470000,-0.042560,
2025-10-16T06:15:35.657521+00:00,3.475000,-0.055480,
2025-10-16T06:15:35.662521+00:00,3.480000,-0.058520,
2025-10-16T06:15:35.667521+00:00,3.485000,-0.050920,
2025-10-16T06:15:35.672521+00:00,3.490000,-0.041800,
2025-10-16T06:15:35.677521+00:00,3.495000,-0.040280,
2025-10-16T06:15:35.682521+00:00,3.500000,-0.045600,
2025-10-16T06:15:35.687521+00:00,3.505000,-0.053200,
2025-10-16T06:15:35.692521+00:00,3.510000,-0.057380,
2025-10-16T06:15:35.697521+00:00,3.515000,-0.057380,
2025-10-16T06:15:35.702521+00:00,3.520000,-0.055860,
2025-10-16T06:15:35.707521+00:00,3.525000,-0.056240,
2025-10-16T06:15:35.712521+00:00,3.530000,-0.057380,
2025-10-16T06:15:35.717521+00:00,3.535000,-0.060420,
2025-10-16T06:15:35.722521+00:00,3.540000,-0.063080,
2025-10-16T06:15:35.727521+00:00,3.545000,-0.059280,
2025-10-16T06:15:35.732521+00:00,3.550000,-0.052060,
2025-10-16T06:15:35.737521+00:00,3.555000,-0.053960,
2025-10-16T06:15:35.742521+00:00,3.560000,-0.058140,
2025-10-16T06:15:35.747521+00:00,3.565000,-0.055860,
2025-10-16T06:15:35.752521+00:00,3.570000,-0.057380,
2025-10-16T06:15:35.757521+00:00,3.575000,-0.064980,
2025-10-16T06:15:35.762521+00:00,3.580000,-0.066120,
2025-10-16T06:15:35.767521+00:00,3.585000,-0.053960,
2025-10-16T06:15:35.772521+00:00,3.590000,-0.036860,
2025-10-16T06:15:35.777521+00:00,3.595000,-0.029640,
2025-10-16T06:15:35.782521+00:00,3.600000,-0.033440,
2025-10-16T06:15:35.787521+00:00,3.605000,-0.037240,
2025-10-16T06:15:35.792521+00:00,3.610000,-0.035340,
2025-10-16T06:15:35.797521+00:00,3.615000,-0.039520,
2025-10-16T06:15:35.802521+00:00,3.620000,-0.052060,
2025-10-16T06:15:35.807521+00:00,3.625000,-0.054340,
2025-10-16T06:15:35.812521+00:00,3.630000,-0.041040,
2025-10-16T06:15:35.817521+00:00,3.635000,-0.026220,
2025-10-16T06:15:35.822521+00:00,3.640000,-0.020140,
2025-10-16T06:15:35.827521+00:00,3.645000,-0.020900,
2025-10-16T06:15:35.832521+00:00,3.650000,-0.022040,
2025-10-16T06:15:35.837521+00:00,3.655000,-0.020900,
2025-10-16T06:15:35.842521+00:00,3.660000,-0.018620,
2025-10-16T06:15:35.847521+00:00,3.665000,-0.023180,
2025-10-16T06:15:35.852521+00:00,3.670000,-0.026600,
2025-10-16T06:15:35.857521+00:00,3.675000,-0.020900,
2025-10-16T06:15:35.862521+00:00,3.680000,-0.026220,
2025-10-16T06:15:35.867521+00:00,3.685000,-0.047120,
2025-10-16T06:15:35.872521+00:00,3.690000,-0.064600,
2025-10-16T06:15:35.877521+00:00,3.695000,-0.060040,
2025-10-16T06:15:35.882521+00:00,3.700000,-0.042180,
2025-10-16T06:15:35.887521+00:00,3.705000,-0.031540,
2025-10-16T06:15:35.892521+00:00,3.710000,-0.027740,
2025-10-16T06:15:35.897521+00:00,3.715000,-0.024320,
2025-10-16T06:15:35.902521+00:00,3.720000,-0.021280,
2025-10-16T06:15:35.907521+00:00,3.725000,-0.030780,
2025-10-16T06:15:35.912521+00:00,3.730000,-0.051680,
2025-10-16T06:15:35.917521+00:00,3.735000,-0.066880,
2025-10-16T06:15:35.922521+00:00,3.740000,-0.062320,
2025-10-16T06:15:35.927521+00:00,3.745000,-0.041040,
2025-10-16T06:15:35.932521+00:00,3.750000,-0.020140,
2025-10-16T06:15:35.937521+00:00,3.755000,-0.016340,
2025-10-16T06:15:35.942521+00:00,3.760000,-0.022420,
2025-10-16T06:15:35.947521+00:00,3.765000,-0.032300,
2025-10-16T06:15:35.952521+00:00,3.770000,-0.044460,
2025-10-16T06:15:35.957521+00:00,3.775000,-0.062700,
2025-10-16T06:15:35.962521+00:00,3.780000,-0.078660,
2025-10-16T06:15:35.967521+00:00,3.785000,-0.081320,
2025-10-16T06:15:35.972521+00:00,3.790000,-0.063840,
2025-10-16T06:15:35.977521+00:00,3.795000,-0.041040,
2025-10-16T06:15:35.982521+00:00,3.800000,-0.033060,
2025-10-16T06:15:35.987521+00:00,3.805000,-0.042560,
2025-10-16T06:15:35.992521+00:00,3.810000,-0.049780,
2025-10-16T06:15:35.997521+00:00,3.815000,-0.051680,
2025-10-16T06:15:36.002521+00:00,3.820000,-0.052440,
2025-10-16T06:15:36.007521+00:00,3.825000,-0.055100,
2025-10-16T06:15:36.012521+00:00,3.830000,-0.052820,
2025-10-16T06:15:36.017521+00:00,3.835000,-0.044840,
2025-10-16T06:15:36.022521+00:00,3.840000,-0.036860,
2025-10-16T06:15:36.027521+00:00,3.845000,-0.036480,
2025-10-16T06:15:36.032521+00:00,3.850000,-0.041420,
2025-10-16T06:15:36.037521+00:00,3.855000,-0.045220,
2025-10-16T06:15:36.042521+00:00,3.860000,-0.051680,
2025-10-16T06:15:36.047521+00:00,3.865000,-0.064600,
2025-10-16T06:15:36.052521+00:00,3.870000,-0.070680,
2025-10-16T06:15:36.057521+00:00,3.875000,-0.056620,
2025-10-16T06:15:36.062521+00:00,3.880000,-0.037620,
2025-10-16T06:15:36.067521+00:00,3.885000,-0.040280,
2025-10-16T06:15:36.072521+00:00,3.890000,-0.060800,
2025-10-16T06:15:36.077521+00:00,3.895000,-0.076000,
2025-10-16T06:15:36.082521+00:00,3.900000,-0.076000,
2025-10-16T06:15:36.087521+00:00,3.905000,-0.071820,
2025-10-16T06:15:36.092521+00:00,3.910000,-0.071060,
2025-10-16T06:15:36.097521+00:00,3.915000,-0.067640,
2025-10-16T06:15:36.102521+00:00,3.920000,-0.051680,
2025-10-16T06:15:36.107521+00:00,3.925000,-0.036480,
2025-10-16T06:15:36.112521+00:00,3.930000,-0.034960,
2025-10-16T06:15:36.117521+00:00,3.935000,-0.037240,
2025-10-16T06:15:36.122521+00:00,3.940000,-0.036100,
2025-10-16T06:15:36.127521+00:00,3.945000,-0.030020,
2025-10-16T06:15:36.132521+00:00,3.950000,-0.025460,
2025-10-16T06:15:36.137521+00:00,3.955000,-0.027740,
2025-10-16T06:15:36.142521+00:00,3.960000,-0.035340,
2025-10-16T06:15:36.147521+00:00,3.965000,-0.052440,
2025-10-16T06:15:36.152521+00:00,3.970000,-0.071060,
2025-10-16T06:15:36.157521+00:00,3.975000,-0.074100,
2025-10-16T06:15:36.162521+00:00,3.980000,-0.049020,
2025-10-16T06:15:36.167521+00:00,3.985000,-0.018620,
2025-10-16T06:15:36.172521+00:00,3.990000,-0.019000,
2025-10-16T06:15:36.177521+00:00,3.995000,-0.046740,
2025-10-16T06:15:36.182521+00:00,4.000000,-0.072960,
2025-10-16T06:15:36.187521+00:00,4.005000,-0.071060,
2025-10-16T06:15:36.192521+00:00,4.010000,-0.045220,
2025-10-16T06:15:36.197521+00:00,4.015000,-0.018620,
2025-10-16T06:15:36.202521+00:00,4.020000,-0.014820,
2025-10-16T06:15:36.207521+00:00,4.025000,-0.029640,
2025-10-16T06:15:36.212521+00:00,4.030000,-0.042560,
2025-10-16T06:15:36.217521+00:00,4.035000,-0.042940,
2025-10-16T06:15:36.222521+00:00,4.040000,-0.041800,
2025-10-16T06:15:36.227521+00:00,4.045000,-0.047500,
2025-10-16T06:15:36.232521+00:00,4.050000,-0.057000,
2025-10-16T06:15:36.237521+00:00,4.055000,-0.059660,
2025-10-16T06:15:36.242521+00:00,4.060000,-0.052820,
2025-10-16T06:15:36.247521+00:00,4.065000,-0.049400,
2025-10-16T06:15:36.252521+00:00,4.070000,-0.052060,
2025-10-16T06:15:36.257521+00:00,4.075000,-0.051680,
2025-10-16T06:15:36.262521+00:00,4.080000,-0.048640,
2025-10-16T06:15:36.267521+00:00,4.085000,-0.047880,
2025-10-16T06:15:36.272521+00:00,4.090000,-0.048260,
2025-10-16T06:15:36.277521+00:00,4.095000,-0.042560,
2025-10-16T06:15:36.282521+00:00,4.100000,-0.039520,
2025-10-16T06:15:36.287521+00:00,4.105000,-0.051300,
2025-10-16T06:15:36.292521+00:00,4.110000,-0.069540,
2025-10-16T06:15:36.297521+00:00,4.115000,-0.074100,
2025-10-16T06:15:36.302521+00:00,4.120000,-0.064220,
2025-10-16T06:15:36.307521+00:00,4.125000,-0.052440,
2025-10-16T06:15:36.312521+00:00,4.130000,-0.042560,
2025-10-16T06:15:36.317521+00:00,4.135000,-0.038380,
2025-10-16T06:15:36.322521+00:00,4.140000,-0.046360,
2025-10-16T06:15:36.327521+00:00,4.145000,-0.058900,
2025-10-16T06:15:36.332521+00:00,4.150000,-0.057760,
2025-10-16T06:15:36.337521+00:00,4.155000,-0.038380,
2025-10-16T06:15:36.342521+00:00,4.160000,-0.027740,
2025-10-16T06:15:36.347521+00:00,4.165000,-0.041040,
2025-10-16T06:15:36.352521+00:00,4.170000,-0.051680,
2025-10-16T06:15:36.357521+00:00,4.175000,-0.031920,
2025-10-16T06:15:36.362521+00:00,4.180000,-0.012160,
2025-10-16T06:15:36.367521+00:00,4.185000,-0.023180,
2025-10-16T06:15:36.372521+00:00,4.190000,-0.060040,
2025-10-16T06:15:36.377521+00:00,4.195000,-0.079800,
2025-10-16T06:15:36.382521+00:00,4.200000,-0.066120,
2025-10-16T06:15:36.387521+00:00,4.205000,-0.041800,
2025-10-16T06:15:36.392521+00:00,4.210000,-0.034580,
2025-10-16T06:15:36.397521+00:00,4.215000,-0.047880,
2025-10-16T06:15:36.402521+00:00,4.220000,-0.062700,
2025-10-16T06:15:36.407521+00:00,4.225000,-0.061940,
2025-10-16T06:15:36.412521+00:00,4.230000,-0.044460,
2025-10-16T06:15:36.417521+00:00,4.235000,-0.030780,
2025-10-16T06:15:36.422521+00:00,4.240000,-0.033060,
2025-10-16T06:15:36.427521+00:00,4.245000,-0.041800,
2025-10-16T06:15:36.432521+00:00,4.250000,-0.044460,
2025-10-16T06:15:36.437521+00:00,4.255000,-0.035340,
2025-10-16T06:15:36.442521+00:00,4.260000,-0.015580,
2025-10-16T06:15:36.447521+00:00,4.265000,0.000000,
2025-10-16T06:15:36.452521+00:00,4.270000,0.004180,
2025-10-16T06:15:36.457521+00:00,4.275000,-0.009120,
2025-10-16T06:15:36.462521+00:00,4.280000,-0.033820,
2025-10-16T06:15:36.467521+00:00,4.285000,-0.050160,
2025-10-16T06:15:36.472521+00:00,4.290000,-0.044840,
2025-10-16T06:15:36.477521+00:00,4.295000,-0.032680,
2025-10-16T06:15:36.482521+00:00,4.300000,-0.032680,
2025-10-16T06:15:36.487521+00:00,4.305000,-0.049780,
2025-10-16T06:15:36.492521+00:00,4.310000,-0.068780,
2025-10-16T06:15:36.497521+00:00,4.315000,-0.071440,
2025-10-16T06:15:36.502521+00:00,4.320000,-0.054340,
2025-10-16T06:15:36.507521+00:00,4.325000,-0.040280,
2025-10-16T06:15:36.512521+00:00,4.330000,-0.036860,
2025-10-16T06:15:36.517521+00:00,4.335000,-0.039900,
2025-10-16T06:15:36.522521+00:00,4.340000,-0.042560,
2025-10-16T06:15:36.527521+00:00,4.345000,-0.042180,
2025-10-16T06:15:36.532521+00:00,4.350000,-0.038000,
2025-10-16T06:15:36.537521+00:00,4.355000,-0.029260,
2025-10-16T06:15:36.542521+00:00,4.360000,-0.016720,
2025-10-16T06:15:36.547521+00:00,4.365000,-0.009120,
2025-10-16T06:15:36.552521+00:00,4.370000,-0.018240,
2025-10-16T06:15:36.557521+00:00,4.375000,-0.040280,
2025-10-16T06:15:36.562521+00:00,4.380000,-0.055100,
2025-10-16T06:15:36.567521+00:00,4.385000,-0.052440,
2025-10-16T06:15:36.572521+00:00,4.390000,-0.036480,
2025-10-16T06:15:36.577521+00:00,4.395000,-0.027740,
2025-10-16T06:15:36.582521+00:00,4.400000,-0.033440,
2025-10-16T06:15:36.587521+00:00,4.405000,-0.043700,
2025-10-16T06:15:36.592521+00:00,4.410000,-0.044460,
2025-10-16T06:15:36.597521+00:00,4.415000,-0.036860,
2025-10-16T06:15:36.602521+00:00,4.420000,-0.030780,
2025-10-16T06:15:36.607521+00:00,4.425000,-0.030020,
2025-10-16T06:15:36.612521+00:00,4.430000,-0.039900,
2025-10-16T06:15:36.617521+00:00,4.435000,-0.058520,
2025-10-16T06:15:36.622521+00:00,4.440000,-0.061560,
2025-10-16T06:15:36.627521+00:00,4.445000,-0.041420,
2025-10-16T06:15:36.632521+00:00,4.450000,-0.021660,
2025-10-16T06:15:36.637521+00:00,4.455000,-0.029260,
2025-10-16T06:15:36.642521+00:00,4.460000,-0.049400,
2025-10-16T06:15:36.647521+00:00,4.465000,-0.055100,
2025-10-16T06:15:36.652521+00:00,4.470000,-0.037620,
2025-10-16T06:15:36.657521+00:00,4.475000,-0.019000,
2025-10-16T06:15:36.662521+00:00,4.480000,-0.020900,
2025-10-16T06:15:36.667521+00:00,4.485000,-0.034960,
2025-10-16T06:15:36.672521+00:00,4.490000,-0.037620,
2025-10-16T06:15:36.677521+00:00,4.495000,-0.029640,
2025-10-16T06:15:36.682521+00:00,4.500000,-0.027740,
2025-10-16T06:15:36.687521+00:00,4.505000,-0.035340,
2025-10-16T06:15:36.692521+00:00,4.510000,-0.040280,
2025-10-16T06:15:36.697521+00:00,4.515000,-0.034200,
2025-10-16T06:15:36.702521+00:00,4.520000,-0.026980,
2025-10-16T06:15:36.707521+00:00,4.525000,-0.033440,
2025-10-16T06:15:36.712521+00:00,4.530000,-0.043320,
2025-10-16T06:15:36.717521+00:00,4.535000,-0.050160,
2025-10-16T06:15:36.722521+00:00,4.540000,-0.055480,
2025-10-16T06:15:36.727521+00:00,4.545000,-0.057760,
2025-10-16T06:15:36.732521+00:00,4.550000,-0.044460,
2025-10-16T06:15:36.737521+00:00,4.555000,-0.024700,
2025-10-16T06:15:36.742521+00:00,4.560000,-0.019000,
2025-10-16T06:15:36.747521+00:00,4.565000,-0.037620,
2025-10-16T06:15:36.752521+00:00,4.570000,-0.053960,
2025-10-16T06:15:36.757521+00:00,4.575000,-0.040280,
2025-10-16T06:15:36.762521+00:00,4.580000,-0.008740,
2025-10-16T06:15:36.767521+00:00,4.585000,0.006840,
2025-10-16T06:15:36.772521+00:00,4.590000,-0.003040,
2025-10-16T06:15:36.777521+00:00,4.595000,-0.019000,
2025-10-16T06:15:36.782521+00:00,4.600000,-0.031160,
2025-10-16T06:15:36.787521+00:00,4.605000,-0.035720,
2025-10-16T06:15:36.792521+00:00,4.610000,-0.041800,
2025-10-16T06:15:36.797521+00:00,4.615000,-0.051300,
2025-10-16T06:15:36.802521+00:00,4.620000,-0.056240,
2025-10-16T06:15:36.807521+00:00,4.625000,-0.052820,
2025-10-16T06:15:36.812521+00:00,4.630000,-0.045600,
2025-10-16T06:15:36.817521+00:00,4.635000,-0.045600,
2025-10-16T06:15:36.822521+00:00,4.640000,-0.056620,
2025-10-16T06:15:36.827521+00:00,4.645000,-0.063840,
2025-10-16T06:15:36.832521+00:00,4.650000,-0.054720,
2025-10-16T06:15:36.837521+00:00,4.655000,-0.034580,
2025-10-16T06:15:36.842521+00:00,4.660000,-0.024700,
2025-10-16T06:15:36.847521+00:00,4.665000,-0.029260,
2025-10-16T06:15:36.852521+00:00,4.670000,-0.035340,
2025-10-16T06:15:36.857521+00:00,4.675000,-0.034960,
2025-10-16T06:15:36.862521+00:00,4.680000,-0.031540,
2025-10-16T06:15:36.867521+00:00,4.685000,-0.033440,
2025-10-16T06:15:36.872521+00:00,4.690000,-0.047880,
2025-10-16T06:15:36.877521+00:00,4.695000,-0.061940,
2025-10-16T06:15:36.882521+00:00,4.700000,-0.069920,
2025-10-16T06:15:36.887521+00:00,4.705000,-0.070680,
2025-10-16T06:15:36.892521+00:00,4.710000,-0.062700,
2025-10-16T06:15:36.897521+00:00,4.715000,-0.047880,
2025-10-16T06:15:36.902521+00:00,4.720000,-0.041800,
2025-10-16T06:15:36.907521+00:00,4.725000,-0.050920,
2025-10-16T06:15:36.912521+00:00,4.730000,-0.066500,
2025-10-16T06:15:36.917521+00:00,4.735000,-0.072960,
2025-10-16T06:15:36.922521+00:00,4.740000,-0.063080,
2025-10-16T06:15:36.927521+00:00,4.745000,-0.039140,
2025-10-16T06:15:36.932521+00:00,4.750000,-0.025460,
2025-10-16T06:15:36.937521+00:00,4.755000,-0.034200,
2025-10-16T06:15:36.942521+00:00,4.760000,-0.039900,
2025-10-16T06:15:36.947521+00:00,4.765000,-0.026600,
2025-10-16T06:15:36.952521+00:00,4.770000,-0.012160,
2025-10-16T06:15:36.957521+00:00,4.775000,-0.013300,
2025-10-16T06:15:36.962521+00:00,4.780000,-0.029260,
2025-10-16T06:15:36.967521+00:00,4.785000,-0.045600,
2025-10-16T06:15:36.972521+00:00,4.790000,-0.053200,
2025-10-16T06:15:36.977521+00:00,4.795000,-0.053200,
2025-10-16T06:15:36.982521+00:00,4.800000,-0.055100,
2025-10-16T06:15:36.987521+00:00,4.805000,-0.056620,
2025-10-16T06:15:36.992521+00:00,4.810000,-0.055860,
2025-10-16T06:15:36.997521+00:00,4.815000,-0.052060,
2025-10-16T06:15:37.002521+00:00,4.820000,-0.041040,
2025-10-16T06:15:37.007521+00:00,4.825000,-0.024700,
2025-10-16T06:15:37.012521+00:00,4.830000,-0.011020,
2025-10-16T06:15:37.017521+00:00,4.835000,-0.010260,
2025-10-16T06:15:37.022521+00:00,4.840000,-0.020900,
2025-10-16T06:15:37.027521+00:00,4.845000,-0.031920,
2025-10-16T06:15:37.032521+00:00,4.850000,-0.031160,
2025-10-16T06:15:37.037521+00:00,4.855000,-0.023940,
2025-10-16T06:15:37.042521+00:00,4.860000,-0.020900,
2025-10-16T06:15:37.047521+00:00,4.865000,-0.025080,
2025-10-16T06:15:37.052521+00:00,4.870000,-0.031540,
2025-10-16T06:15:37.057521+00:00,4.875000,-0.030020,
2025-10-16T06:15:37.062521+00:00,4.880000,-0.016340,
2025-10-16T06:15:37.067521+00:00,4.885000,-0.009880,
2025-10-16T06:15:37.072521+00:00,4.890000,-0.019380,
2025-10-16T06:15:37.077521+00:00,4.895000,-0.032300,
2025-10-16T06:15:37.082521+00:00,4.900000,-0.033820,
2025-10-16T06:15:37.087521+00:00,4.905000,-0.024320,
2025-10-16T06:15:37.092521+00:00,4.910000,-0.015960,
2025-10-16T06:15:37.097521+00:00,4.915000,-0.025840,
2025-10-16T06:15:37.102521+00:00,4.920000,-0.050920,
2025-10-16T06:15:37.107521+00:00,4.925000,-0.065740,
2025-10-16T06:15:37.112521+00:00,4.930000,-0.055480,
2025-10-16T06:15:37.117521+00:00,4.935000,-0.037240,
2025-10-16T06:15:37.122521+00:00,4.940000,-0.030020,
2025-10-16T06:15:37.127521+00:00,4.945000,-0.034960,
2025-10-16T06:15:37.132521+00:00,4.950000,-0.043320,
2025-10-16T06:15:37.137521+00:00,4.955000,-0.047880,
2025-10-16T06:15:37.142521+00:00,4.960000,-0.056620,
2025-10-16T06:15:37.147521+00:00,4.965000,-0.064220,
2025-10-16T06:15:37.152521+00:00,4.970000,-0.058900,
2025-10-16T06:15:37.157521+00:00,4.975000,-0.043320,
2025-10-16T06:15:37.162521+00:00,4.980000,-0.033820,
2025-10-16T06:15:37.167521+00:00,4.985000,-0.039520,
2025-10-16T06:15:37.172521+00:00,4.990000,-0.050920,
2025-10-16T06:15:37.177521+00:00,4.995000,-0.058140,
2025-10-16T06:15:37.182521+00:00,5.000000,-0.061180,
2025-10-16T06:15:37.187521+00:00,5.005000,-0.055480,
2025-10-16T06:15:37.192521+00:00,5.010000,-0.043320,
2025-10-16T06:15:37.197521+00:00,5.015000,-0.034200,
2025-10-16T06:15:37.202521+00:00,5.020000,-0.039140,
2025-10-16T06:15:37.207521+00:00,5.025000,-0.050540,
2025-10-16T06:15:37.212521+00:00,5.030000,-0.050920,
2025-10-16T06:15:37.217521+00:00,5.035000,-0.042940,
2025-10-16T06:15:37.222521+00:00,5.040000,-0.031920,
2025-10-16T06:15:37.227521+00:00,5.045000,-0.020520,
2025-10-16T06:15:37.232521+00:00,5.050000,-0.015200,
2025-10-16T06:15:37.237521+00:00,5.055000,-0.021280,
2025-10-16T06:15:37.242521+00:00,5.060000,-0.031160,
2025-10-16T06:15:37.247521+00:00,5.065000,-0.039140,
2025-10-16T06:15:37.252521+00:00,5.070000,-0.042940,
2025-10-16T06:15:37.257521+00:00,5.075000,-0.044080,
2025-10-16T06:15:37.262521+00:00,5.080000,-0.042180,
2025-10-16T06:15:37.267521+00:00,5.085000,-0.039140,
2025-10-16T06:15:37.272521+00:00,5.090000,-0.039140,
2025-10-16T06:15:37.277521+00:00,5.095000,-0.039900,
2025-10-16T06:15:37.282521+00:00,5.100000,-0.039520,
2025-10-16T06:15:37.287521+00:00,5.105000,-0.034960,
2025-10-16T06:15:37.292521+00:00,5.110000,-0.033820,
2025-10-16T06:15:37.297521+00:00,5.115000,-0.044460,
2025-10-16T06:15:37.302521+00:00,5.120000,-0.058520,
2025-10-16T06:15:37.307521+00:00,5.125000,-0.059660,
2025-10-16T06:15:37.312521+00:00,5.130000,-0.044460,
2025-10-16T06:15:37.317521+00:00,5.135000,-0.029260,
2025-10-16T06:15:37.322521+00:00,5.140000,-0.031920,
2025-10-16T06:15:37.327521+00:00,5.145000,-0.042940,
2025-10-16T06:15:37.332521+00:00,5.150000,-0.041800,
2025-10-16T06:15:37.337521+00:00,5.155000,-0.023940,
2025-10-16T06:15:37.342521+00:00,5.160000,-0.011020,
2025-10-16T06:15:37.347521+00:00,5.165000,-0.015960,
2025-10-16T06:15:37.352521+00:00,5.170000,-0.032680,
2025-10-16T06:15:37.357521+00:00,5.175000,-0.040280,
2025-10-16T06:15:37.362521+00:00,5.180000,-0.042940,
2025-10-16T06:15:37.367521+00:00,5.185000,-0.054340,
2025-10-16T06:15:37.372521+00:00,5.190000,-0.060800,
2025-10-16T06:15:37.377521+00:00,5.195000,-0.050920,
2025-10-16T06:15:37.382521+00:00,5.200000,-0.035720,
2025-10-16T06:15:37.387521+00:00,5.205000,-0.034580,
2025-10-16T06:15:37.392521+00:00,5.210000,-0.036860,
2025-10-16T06:15:37.397521+00:00,5.215000,-0.030020,
2025-10-16T06:15:37.402521+00:00,5.220000,-0.024320,
2025-10-16T06:15:37.407521+00:00,5.225000,-0.035720,
2025-10-16T06:15:37.412521+00:00,5.230000,-0.055480,
2025-10-16T06:15:37.417521+00:00,5.235000,-0.063460,
2025-10-16T06:15:37.422521+00:00,5.240000,-0.058520,
2025-10-16T06:15:37.427521+00:00,5.245000,-0.050160,
2025-10-16T06:15:37.432521+00:00,5.250000,-0.041800,
2025-10-16T06:15:37.437521+00:00,5.255000,-0.034200,
2025-10-16T06:15:37.442521+00:00,5.260000,-0.027360,
2025-10-16T06:15:37.447521+00:00,5.265000,-0.032680,
2025-10-16T06:15:37.452521+00:00,5.270000,-0.046360,
2025-10-16T06:15:37.457521+00:00,5.275000,-0.041040,
2025-10-16T06:15:37.462521+00:00,5.280000,-0.020520,
2025-10-16T06:15:37.467521+00:00,5.285000,-0.010640,
2025-10-16T06:15:37.472521+00:00,5.290000,-0.018620,
2025-10-16T06:15:37.477521+00:00,5.295000,-0.035340,
2025-10-16T06:15:37.482521+00:00,5.300000,-0.048640,
2025-10-16T06:15:37.487521+00:00,5.305000,-0.051300,
2025-10-16T06:15:37.492521+00:00,5.310000,-0.049020,
2025-10-16T06:15:37.497521+00:00,5.315000,-0.050160,
2025-10-16T06:15:37.502521+00:00,5.320000,-0.049020,
2025-10-16T06:15:37.507521+00:00,5.325000,-0.050540,
2025-10-16T06:15:37.512521+00:00,5.330000,-0.057380,
2025-10-16T06:15:37.517521+00:00,5.335000,-0.070300,
2025-10-16T06:15:37.522521+00:00,5.340000,-0.069160,
2025-10-16T06:15:37.527521+00:00,5.345000,-0.053580,
2025-10-16T06:15:37.532521+00:00,5.350000,-0.039140,
2025-10-16T06:15:37.537521+00:00,5.355000,-0.042180,
2025-10-16T06:15:37.542521+00:00,5.360000,-0.046740,
2025-10-16T06:15:37.547521+00:00,5.365000,-0.039520,
2025-10-16T06:15:37.552521+00:00,5.370000,-0.026220,
2025-10-16T06:15:37.557521+00:00,5.375000,-0.029640,
2025-10-16T06:15:37.562521+00:00,5.380000,-0.052060,
2025-10-16T06:15:37.567521+00:00,5.385000,-0.070680,
2025-10-16T06:15:37.572521+00:00,5.390000,-0.068020,
2025-10-16T06:15:37.577521+00:00,5.395000,-0.055100,
2025-10-16T06:15:37.582521+00:00,5.400000,-0.047880,
2025-10-16T06:15:37.587521+00:00,5.405000,-0.052060,
2025-10-16T06:15:37.592521+00:00,5.410000,-0.062320,
2025-10-16T06:15:37.597521+00:00,5.415000,-0.074860,
2025-10-16T06:15:37.602521+00:00,5.420000,-0.074480,
2025-10-16T06:15:37.607521+00:00,5.425000,-0.056240,
2025-10-16T06:15:37.612521+00:00,5.430000,-0.038380,
2025-10-16T06:15:37.617521+00:00,5.435000,-0.040660,
2025-10-16T06:15:37.622521+00:00,5.440000,-0.050160,
2025-10-16T06:15:37.627521+00:00,5.445000,-0.050540,
2025-10-16T06:15:37.632521+00:00,5.450000,-0.039140,
2025-10-16T06:15:37.637521+00:00,5.455000,-0.032680,
2025-10-16T06:15:37.642521+00:00,5.460000,-0.033440,
2025-10-16T06:15:37.647521+00:00,5.465000,-0.034200,
2025-10-16T06:15:37.652521+00:00,5.470000,-0.035340,
2025-10-16T06:15:37.657521+00:00,5.475000,-0.039520,
2025-10-16T06:15:37.662521+00:00,5.480000,-0.042180,
2025-10-16T06:15:37.667521+00:00,5.485000,-0.043700,
2025-10-16T06:15:37.672521+00:00,5.490000,-0.043700,
2025-10-16T06:15:37.677521+00:00,5.495000,-0.047120,
2025-10-16T06:15:37.682521+00:00,5.500000,-0.050160,
2025-10-16T06:15:37.687521+00:00,5.505000,-0.054340,
2025-10-16T06:15:37.692521+00:00,5.510000,-0.059660,
2025-10-16T06:15:37.697521+00:00,5.515000,-0.061180,
2025-10-16T06:15:37.702521+00:00,5.520000,-0.052820,
2025-10-16T06:15:37.707521+00:00,5.525000,-0.039140,
2025-10-16T06:15:37.712521+00:00,5.530000,-0.034960,
2025-10-16T06:15:37.717521+00:00,5.535000,-0.037240,
2025-10-16T06:15:37.722521+00:00,5.540000,-0.034580,
2025-10-16T06:15:37.727521+00:00,5.545000,-0.035340,
2025-10-16T06:15:37.732521+00:00,5.550000,-0.046360,
2025-10-16T06:15:37.737521+00:00,5.555000,-0.060800,
2025-10-16T06:15:37.742521+00:00,5.560000,-0.055480,
2025-10-16T06:15:37.747521+00:00,5.565000,-0.032680,
2025-10-16T06:15:37.752521+00:00,5.570000,-0.017860,
2025-10-16T06:15:37.757521+00:00,5.575000,-0.023560,
2025-10-16T06:15:37.762521+00:00,5.580000,-0.038000,
2025-10-16T06:15:37.767521+00:00,5.585000,-0.048640,
2025-10-16T06:15:37.772521+00:00,5.590000,-0.056240,
2025-10-16T06:15:37.777521+00:00,5.595000,-0.061940,
2025-10-16T06:15:37.782521+00:00,5.600000,-0.054340,
2025-10-16T06:15:37.787521+00:00,5.605000,-0.037620,
2025-10-16T06:15:37.792521+00:00,5.610000,-0.026980,
2025-10-16T06:15:37.797521+00:00,5.615000,-0.035340,
2025-10-16T06:15:37.802521+00:00,5.620000,-0.050160,
2025-10-16T06:15:37.807521+00:00,5.625000,-0.049400,
2025-10-16T06:15:37.812521+00:00,5.630000,-0.038380,
2025-10-16T06:15:37.817521+00:00,5.635000,-0.034580,
2025-10-16T06:15:37.822521+00:00,5.640000,-0.038760,
2025-10-16T06:15:37.827521+00:00,5.645000,-0.042940,
2025-10-16T06:15:37.832521+00:00,5.650000,-0.047500,
2025-10-16T06:15:37.837521+00:00,5.655000,-0.055100,
2025-10-16T06:15:37.842521+00:00,5.660000,-0.056620,
2025-10-16T06:15:37.847521+00:00,5.665000,-0.045980,
2025-10-16T06:15:37.852521+00:00,5.670000,-0.036100,
2025-10-16T06:15:37.857521+00:00,5.675000,-0.036480,
2025-10-16T06:15:37.862521+00:00,5.680000,-0.044460,
2025-10-16T06:15:37.867521+00:00,5.685000,-0.042940,
2025-10-16T06:15:37.872521+00:00,5.690000,-0.032300,
2025-10-16T06:15:37.877521+00:00,5.695000,-0.028500,
2025-10-16T06:15:37.882521+00:00,5.700000,-0.044460,
2025-10-16T06:15:37.887521+00:00,5.705000,-0.052820,
2025-10-16T06:15:37.892521+00:00,5.710000,-0.039520,
2025-10-16T06:15:37.897521+00:00,5.715000,-0.023940,
2025-10-16T06:15:37.902521+00:00,5.720000,-0.026980,
2025-10-16T06:15:37.907521+00:00,5.725000,-0.040660,
2025-10-16T06:15:37.912521+00:00,5.730000,-0.049400,
2025-10-16T06:15:37.917521+00:00,5.735000,-0.044840,
2025-10-16T06:15:37.922521+00:00,5.740000,-0.035340,
2025-10-16T06:15:37.927521+00:00,5.745000,-0.030020,
2025-10-16T06:15:37.932521+00:00,5.750000,-0.029640,
2025-10-16T06:15:37.937521+00:00,5.755000,-0.028500,
2025-10-16T06:15:37.942521+00:00,5.760000,-0.030780,
2025-10-16T06:15:37.947521+00:00,5.765000,-0.034960,
2025-10-16T06:15:37.952521+00:00,5.770000,-0.040280,
2025-10-16T06:15:37.957521+00:00,5.775000,-0.049400,
2025-10-16T06:15:37.962521+00:00,5.780000,-0.055860,
2025-10-16T06:15:37.967521+00:00,5.785000,-0.049400,
2025-10-16T06:15:37.972521+00:00,5.790000,-0.037620,
2025-10-16T06:15:37.977521+00:00,5.795000,-0.028500,
2025-10-16T06:15:37.982521+00:00,5.800000,-0.033440,
2025-10-16T06:15:37.987521+00:00,5.805000,-0.046360,
2025-10-16T06:15:37.992521+00:00,5.810000,-0.049780,
2025-10-16T06:15:37.997521+00:00,5.815000,-0.042180,
2025-10-16T06:15:38.002521+00:00,5.820000,-0.039900,
2025-10-16T06:15:38.007521+00:00,5.825000,-0.044080,
2025-10-16T06:15:38.012521+00:00,5.830000,-0.046360,
2025-10-16T06:15:38.017521+00:00,5.835000,-0.045220,
2025-10-16T06:15:38.022521+00:00,5.840000,-0.041420,
2025-10-16T06:15:38.027521+00:00,5.845000,-0.039520,
2025-10-16T06:15:38.032521+00:00,5.850000,-0.046360,
2025-10-16T06:15:38.037521+00:00,5.855000,-0.059280,
2025-10-16T06:15:38.042521+00:00,5.860000,-0.064600,
2025-10-16T06:15:38.047521+00:00,5.865000,-0.060040,
2025-10-16T06:15:38.052521+00:00,5.870000,-0.059660,
2025-10-16T06:15:38.057521+00:00,5.875000,-0.068780,
2025-10-16T06:15:38.062521+00:00,5.880000,-0.077900,
2025-10-16T06:15:38.067521+00:00,5.885000,-0.064980,
2025-10-16T06:15:38.072521+00:00,5.890000,-0.038380,
2025-10-16T06:15:38.077521+00:00,5.895000,-0.026220,
2025-10-16T06:15:38.082521+00:00,5.900000,-0.044080,
2025-10-16T06:15:38.087521+00:00,5.905000,-0.064600,
2025-10-16T06:15:38.092521+00:00,5.910000,-0.062320,
2025-10-16T06:15:38.097521+00:00,5.915000,-0.045600,
2025-10-16T06:15:38.102521+00:00,5.920000,-0.033440,
2025-10-16T06:15:38.107521+00:00,5.925000,-0.031160,
2025-10-16T06:15:38.112521+00:00,5.930000,-0.032300,
2025-10-16T06:15:38.117521+00:00,5.935000,-0.035720,
2025-10-16T06:15:38.122521+00:00,5.940000,-0.045980,
2025-10-16T06:15:38.127521+00:00,5.945000,-0.051300,
2025-10-16T06:15:38.132521+00:00,5.950000,-0.052060,
2025-10-16T06:15:38.137521+00:00,5.955000,-0.045600,
2025-10-16T06:15:38.142521+00:00,5.960000,-0.038380,
2025-10-16T06:15:38.147521+00:00,5.965000,-0.033440,
2025-10-16T06:15:38.152521+00:00,5.970000,-0.036100,
2025-10-16T06:15:38.157521+00:00,5.975000,-0.044840,
2025-10-16T06:15:38.162521+00:00,5.980000,-0.045600,
2025-10-16T06:15:38.167521+00:00,5.985000,-0.035720,
2025-10-16T06:15:38.172521+00:00,5.990000,-0.022040,
2025-10-16T06:15:38.177521+00:00,5.995000,-0.011400,
2025-10-16T06:15:38.182521+00:00,6.000000,-0.015960,
2025-10-16T06:15:38.187521+00:00,6.005000,-0.035720,
2025-10-16T06:15:38.192521+00:00,6.010000,-0.056620,
2025-10-16T06:15:38.197521+00:00,6.015000,-0.068020,
2025-10-16T06:15:38.202521+00:00,6.020000,-0.072960,
2025-10-16T06:15:38.207521+00:00,6.025000,-0.073720,
2025-10-16T06:15:38.212521+00:00,6.030000,-0.063080,
2025-10-16T06:15:38.217521+00:00,6.035000,-0.041420,
2025-10-16T06:15:38.222521+00:00,6.040000,-0.024700,
2025-10-16T06:15:38.227521+00:00,6.045000,-0.022420,
2025-10-16T06:15:38.232521+00:00,6.050000,-0.033820,
2025-10-16T06:15:38.237521+00:00,6.055000,-0.041800,
2025-10-16T06:15:38.242521+00:00,6.060000,-0.042940,
2025-10-16T06:15:38.247521+00:00,6.065000,-0.040280,
2025-10-16T06:15:38.252521+00:00,6.070000,-0.036480,
2025-10-16T06:15:38.257521+00:00,6.075000,-0.028120,
2025-10-16T06:15:38.262521+00:00,6.080000,-0.018240,
2025-10-16T06:15:38.267521+00:00,6.085000,-0.015580,
2025-10-16T06:15:38.272521+00:00,6.090000,-0.015200,
2025-10-16T06:15:38.277521+00:00,6.095000,-0.013300,
2025-10-16T06:15:38.282521+00:00,6.100000,-0.019380,
2025-10-16T06:15:38.287521+00:00,6.105000,-0.033820,
2025-10-16T06:15:38.292521+00:00,6.110000,-0.034580,
2025-10-16T06:15:38.297521+00:00,6.115000,-0.022040,
2025-10-16T06:15:38.302521+00:00,6.120000,-0.016340,
2025-10-16T06:15:38.307521+00:00,6.125000,-0.020140,
2025-10-16T06:15:38.312521+00:00,6.130000,-0.024320,
2025-10-16T06:15:38.317521+00:00,6.135000,-0.022420,
2025-10-16T06:15:38.322521+00:00,6.140000,-0.021280,
2025-10-16T06:15:38.327521+00:00,6.145000,-0.031920,
2025-10-16T06:15:38.332521+00:00,6.150000,-0.051300,
2025-10-16T06:15:38.337521+00:00,6.155000,-0.066880,
2025-10-16T06:15:38.342521+00:00,6.160000,-0.069540,
2025-10-16T06:15:38.347521+00:00,6.165000,-0.063080,
2025-10-16T06:15:38.352521+00:00,6.170000,-0.055480,
2025-10-16T06:15:38.357521+00:00,6.175000,-0.055100,
2025-10-16T06:15:38.362521+00:00,6.180000,-0.066120,
2025-10-16T06:15:38.367521+00:00,6.185000,-0.079800,
2025-10-16T06:15:38.372521+00:00,6.190000,-0.081700,
2025-10-16T06:15:38.377521+00:00,6.195000,-0.067640,
2025-10-16T06:15:38.382521+00:00,6.200000,-0.052440,
2025-10-16T06:15:38.387521+00:00,6.205000,-0.043700,
2025-10-16T06:15:38.392521+00:00,6.210000,-0.044460,
2025-10-16T06:15:38.397521+00:00,6.215000,-0.050160,
2025-10-16T06:15:38.402521+00:00,6.220000,-0.059280,
2025-10-16T06:15:38.407521+00:00,6.225000,-0.063840,
2025-10-16T06:15:38.412521+00:00,6.230000,-0.058900,
2025-10-16T06:15:38.417521+00:00,6.235000,-0.055860,
2025-10-16T06:15:38.422521+00:00,6.240000,-0.060040,
2025-10-16T06:15:38.427521+00:00,6.245000,-0.065740,
2025-10-16T06:15:38.432521+00:00,6.250000,-0.062700,
2025-10-16T06:15:38.437521+00:00,6.255000,-0.057380,
2025-10-16T06:15:38.442521+00:00,6.260000,-0.061940,
2025-10-16T06:15:38.447521+00:00,6.265000,-0.069160,
2025-10-16T06:15:38.452521+00:00,6.270000,-0.064980,
2025-10-16T06:15:38.457521+00:00,6.275000,-0.044080,
2025-10-16T06:15:38.462521+00:00,6.280000,-0.019380,
2025-10-16T06:15:38.467521+00:00,6.285000,-0.007220,
2025-10-16T06:15:38.472521+00:00,6.290000,-0.003800,
2025-10-16T06:15:38.477521+00:00,6.295000,-0.008360,
2025-10-16T06:15:38.482521+00:00,6.300000,-0.023560,
2025-10-16T06:15:38.487521+00:00,6.305000,-0.041420,
2025-10-16T06:15:38.492521+00:00,6.310000,-0.054720,
2025-10-16T06:15:38.497521+00:00,6.315000,-0.060420,
2025-10-16T06:15:38.502521+00:00,6.320000,-0.056620,
2025-10-16T06:15:38.507521+00:00,6.325000,-0.047120,
2025-10-16T06:15:38.512521+00:00,6.330000,-0.041420,
2025-10-16T06:15:38.517521+00:00,6.335000,-0.044460,
2025-10-16T06:15:38.522521+00:00,6.340000,-0.044080,
2025-10-16T06:15:38.527521+00:00,6.345000,-0.032300,
2025-10-16T06:15:38.532521+00:00,6.350000,-0.022040,
2025-10-16T06:15:38.537521+00:00,6.355000,-0.030020,
2025-10-16T06:15:38.542521+00:00,6.360000,-0.047880,
2025-10-16T06:15:38.547521+00:00,6.365000,-0.055100,
2025-10-16T06:15:38.552521+00:00,6.370000,-0.048640,
2025-10-16T06:15:38.557521+00:00,6.375000,-0.042560,
2025-10-16T06:15:38.562521+00:00,6.380000,-0.039520,
2025-10-16T06:15:38.567521+00:00,6.385000,-0.038760,
2025-10-16T06:15:38.572521+00:00,6.390000,-0.039520,
2025-10-16T06:15:38.577521+00:00,6.395000,-0.049780,
2025-10-16T06:15:38.582521+00:00,6.400000,-0.062320,
2025-10-16T06:15:38.587521+00:00,6.405000,-0.065360,
2025-10-16T06:15:38.592521+00:00,6.410000,-0.045980,
2025-10-16T06:15:38.597521+00:00,6.415000,-0.024700,
2025-10-16T06:15:38.602521+00:00,6.420000,-0.029640,
2025-10-16T06:15:38.607521+00:00,6.425000,-0.059660,
2025-10-16T06:15:38.612521+00:00,6.430000,-0.076000,
2025-10-16T06:15:38.617521+00:00,6.435000,-0.055860,
2025-10-16T06:15:38.622521+00:00,6.440000,-0.021660,
2025-10-16T06:15:38.627521+00:00,6.445000,-0.014060,
2025-10-16T06:15:38.632521+00:00,6.450000,-0.036100,
2025-10-16T06:15:38.637521+00:00,6.455000,-0.057760,
2025-10-16T06:15:38.642521+00:00,6.460000,-0.049020,
2025-10-16T06:15:38.647521+00:00,6.465000,-0.026220,
2025-10-16T06:15:38.652521+00:00,6.470000,-0.022420,
2025-10-16T06:15:38.657521+00:00,6.475000,-0.038760,
2025-10-16T06:15:38.662521+00:00,6.480000,-0.049780,
2025-10-16T06:15:38.667521+00:00,6.485000,-0.044080,
2025-10-16T06:15:38.672521+00:00,6.490000,-0.024700,
2025-10-16T06:15:38.677521+00:00,6.495000,-0.016340,
2025-10-16T06:15:38.682521+00:00,6.500000,-0.030400,
2025-10-16T06:15:38.687521+00:00,6.505000,-0.051680,
2025-10-16T06:15:38.692521+00:00,6.510000,-0.058520,
2025-10-16T06:15:38.697521+00:00,6.515000,-0.048260,
2025-10-16T06:15:38.702521+00:00,6.520000,-0.030780,
2025-10-16T06:15:38.707521+00:00,6.525000,-0.022420,
2025-10-16T06:15:38.712521+00:00,6.530000,-0.039140,
2025-10-16T06:15:38.717521+00:00,6.535000,-0.066880,
2025-10-16T06:15:38.722521+00:00,6.540000,-0.075240,
2025-10-16T06:15:38.727521+00:00,6.545000,-0.054340,
2025-10-16T06:15:38.732521+00:00,6.550000,-0.020900,
2025-10-16T06:15:38.737521+00:00,6.555000,-0.003040,
2025-10-16T06:15:38.742521+00:00,6.560000,-0.011400,
2025-10-16T06:15:38.747521+00:00,6.565000,-0.030020,
2025-10-16T06:15:38.752521+00:00,6.570000,-0.042180,
2025-10-16T06:15:38.757521+00:00,6.575000,-0.042180,
2025-10-16T06:15:38.762521+00:00,6.580000,-0.034200,
2025-10-16T06:15:38.767521+00:00,6.585000,-0.028120,
2025-10-16T06:15:38.772521+00:00,6.590000,-0.030780,
2025-10-16T06:15:38.777521+00:00,6.595000,-0.038760,
2025-10-16T06:15:38.782521+00:00,6.600000,-0.042940,
2025-10-16T06:15:38.787521+00:00,6.605000,-0.038000,
2025-10-16T06:15:38.792521+00:00,6.610000,-0.028120,
2025-10-16T06:15:38.797521+00:00,6.615000,-0.025840,
2025-10-16T06:15:38.802521+00:00,6.620000,-0.039900,
2025-10-16T06:15:38.807521+00:00,6.625000,-0.057380,
2025-10-16T06:15:38.812521+00:00,6.630000,-0.058520,
2025-10-16T06:15:38.817521+00:00,6.635000,-0.045980,
2025-10-16T06:15:38.822521+00:00,6.640000,-0.036860,
2025-10-16T06:15:38.827521+00:00,6.645000,-0.037620,
2025-10-16T06:15:38.832521+00:00,6.650000,-0.044840,
2025-10-16T06:15:38.837521+00:00,6.655000,-0.049400,
2025-10-16T06:15:38.842521+00:00,6.660000,-0.044460,
2025-10-16T06:15:38.847521+00:00,6.665000,-0.038380,
2025-10-16T06:15:38.852521+00:00,6.670000,-0.039520,
2025-10-16T06:15:38.857521+00:00,6.675000,-0.047500,
2025-10-16T06:15:38.862521+00:00,6.680000,-0.053200,
2025-10-16T06:15:38.867521+00:00,6.685000,-0.049400,
2025-10-16T06:15:38.872521+00:00,6.690000,-0.039900,
2025-10-16T06:15:38.877521+00:00,6.695000,-0.035720,
2025-10-16T06:15:38.882521+00:00,6.700000,-0.033820,
2025-10-16T06:15:38.887521+00:00,6.705000,-0.025460,
2025-10-16T06:15:38.892521+00:00,6.710000,-0.008360,
2025-10-16T06:15:38.897521+00:00,6.715000,-0.003040,
2025-10-16T06:15:38.902521+00:00,6.720000,-0.018240,
2025-10-16T06:15:38.907521+00:00,6.725000,-0.036860,
2025-10-16T06:15:38.912521+00:00,6.730000,-0.035340,
2025-10-16T06:15:38.917521+00:00,6.735000,-0.023180,
2025-10-16T06:15:38.922521+00:00,6.740000,-0.021280,
2025-10-16T06:15:38.927521+00:00,6.745000,-0.036100,
2025-10-16T06:15:38.932521+00:00,6.750000,-0.053200,
2025-10-16T06:15:38.937521+00:00,6.755000,-0.056620,
2025-10-16T06:15:38.942521+00:00,6.760000,-0.042180,
2025-10-16T06:15:38.947521+00:00,6.765000,-0.022420,
2025-10-16T06:15:38.952521+00:00,6.770000,-0.015200,
2025-10-16T06:15:38.957521+00:00,6.775000,-0.026220,
2025-10-16T06:15:38.962521+00:00,6.780000,-0.035340,
2025-10-16T06:15:38.967521+00:00,6.785000,-0.028120,
2025-10-16T06:15:38.972521+00:00,6.790000,-0.009880,
2025-10-16T06:15:38.977521+00:00,6.795000,-0.006460,
2025-10-16T06:15:38.982521+00:00,6.800000,-0.026220,
2025-10-16T06:15:38.987521+00:00,6.805000,-0.050540,
2025-10-16T06:15:38.992521+00:00,6.810000,-0.053960,
2025-10-16T06:15:38.997521+00:00,6.815000,-0.040660,
2025-10-16T06:15:39.002521+00:00,6.820000,-0.028120,
2025-10-16T06:15:39.007521+00:00,6.825000,-0.023180,
2025-10-16T06:15:39.012521+00:00,6.830000,-0.020900,
2025-10-16T06:15:39.017521+00:00,6.835000,-0.020900,
2025-10-16T06:15:39.022521+00:00,6.840000,-0.023180,
2025-10-16T06:15:39.027521+00:00,6.845000,-0.021660,
2025-10-16T06:15:39.032521+00:00,6.850000,-0.014820,
2025-10-16T06:15:39.037521+00:00,6.855000,-0.012920,
2025-10-16T06:15:39.042521+00:00,6.860000,-0.023180,
2025-10-16T06:15:39.047521+00:00,6.865000,-0.034960,
2025-10-16T06:15:39.052521+00:00,6.870000,-0.034960,
2025-10-16T06:15:39.057521+00:00,6.875000,-0.030020,
2025-10-16T06:15:39.062521+00:00,6.880000,-0.031540,
2025-10-16T06:15:39.067521+00:00,6.885000,-0.036480,
2025-10-16T06:15:39.072521+00:00,6.890000,-0.036100,
2025-10-16T06:15:39.077521+00:00,6.895000,-0.036100,
2025-10-16T06:15:39.082521+00:00,6.900000,-0.042180,
2025-10-16T06:15:39.087521+00:00,6.905000,-0.051680,
2025-10-16T06:15:39.092521+00:00,6.910000,-0.047500,
2025-10-16T06:15:39.097521+00:00,6.915000,-0.033440,
2025-10-16T06:15:39.102521+00:00,6.920000,-0.026220,
2025-10-16T06:15:39.107521+00:00,6.925000,-0.027740,
2025-10-16T06:15:39.112521+00:00,6.930000,-0.032680,
2025-10-16T06:15:39.117521+00:00,6.935000,-0.044840,
2025-10-16T06:15:39.122521+00:00,6.940000,-0.063840,
2025-10-16T06:15:39.127521+00:00,6.945000,-0.068780,
2025-10-16T06:15:39.132521+00:00,6.950000,-0.050920,
2025-10-16T06:15:39.137521+00:00,6.955000,-0.027740,
2025-10-16T06:15:39.142521+00:00,6.960000,-0.026980,
2025-10-16T06:15:39.147521+00:00,6.965000,-0.044840,
2025-10-16T06:15:39.152521+00:00,6.970000,-0.066120,
2025-10-16T06:15:39.157521+00:00,6.975000,-0.077900,
2025-10-16T06:15:39.162521+00:00,6.980000,-0.074100,
2025-10-16T06:15:39.167521+00:00,6.985000,-0.058520,
2025-10-16T06:15:39.172521+00:00,6.990000,-0.040660,
2025-10-16T06:15:39.177521+00:00,6.995000,-0.027740,
2025-10-16T06:15:39.182521+00:00,7.000000,-0.026980,
2025-10-16T06:15:39.187521+00:00,7.005000,-0.031160,
2025-10-16T06:15:39.192521+00:00,7.010000,-0.037240,
2025-10-16T06:15:39.197521+00:00,7.015000,-0.041420,
2025-10-16T06:15:39.202521+00:00,7.020000,-0.050540,
2025-10-16T06:15:39.207521+00:00,7.025000,-0.058140,
2025-10-16T06:15:39.212521+00:00,7.030000,-0.058900,
2025-10-16T06:15:39.217521+00:00,7.035000,-0.052820,
2025-10-16T06:15:39.222521+00:00,7.040000,-0.049020,
2025-10-16T06:15:39.227521+00:00,7.045000,-0.045220,
2025-10-16T06:15:39.232521+00:00,7.050000,-0.045600,
2025-10-16T06:15:39.237521+00:00,7.055000,-0.053580,
2025-10-16T06:15:39.242521+00:00,7.060000,-0.061560,
2025-10-16T06:15:39.247521+00:00,7.065000,-0.054340,
2025-10-16T06:15:39.252521+00:00,7.070000,-0.034200,
2025-10-16T06:15:39.257521+00:00,7.075000,-0.017100,
2025-10-16T06:15:39.262521+00:00,7.080000,-0.019000,
2025-10-16T06:15:39.267521+00:00,7.085000,-0.038380,
2025-10-16T06:15:39.272521+00:00,7.090000,-0.058520,
2025-10-16T06:15:39.277521+00:00,7.095000,-0.063460,
2025-10-16T06:15:39.282521+00:00,7.100000,-0.056240,
2025-10-16T06:15:39.287521+00:00,7.105000,-0.049400,
2025-10-16T06:15:39.292521+00:00,7.110000,-0.050160,
2025-10-16T06:15:39.297521+00:00,7.115000,-0.049400,
2025-10-16T06:15:39.302521+00:00,7.120000,-0.046740,
2025-10-16T06:15:39.307521+00:00,7.125000,-0.041420,
2025-10-16T06:15:39.312521+00:00,7.130000,-0.035720,
2025-10-16T06:15:39.317521+00:00,7.135000,-0.037620,
2025-10-16T06:15:39.322521+00:00,7.140000,-0.050160,
2025-10-16T06:15:39.327521+00:00,7.145000,-0.058520,
2025-10-16T06:15:39.332521+00:00,7.150000,-0.050540,
2025-10-16T06:15:39.337521+00:00,7.155000,-0.036100,
2025-10-16T06:15:39.342521+00:00,7.160000,-0.030400,
2025-10-16T06:15:39.347521+00:00,7.165000,-0.036860,
2025-10-16T06:15:39.352521+00:00,7.170000,-0.045980,
2025-10-16T06:15:39.357521+00:00,7.175000,-0.045220,
2025-10-16T06:15:39.362521+00:00,7.180000,-0.032300,
2025-10-16T06:15:39.367521+00:00,7.185000,-0.017100,
2025-10-16T06:15:39.372521+00:00,7.190000,-0.013300,
2025-10-16T06:15:39.377521+00:00,7.195000,-0.025080,
2025-10-16T06:15:39.382521+00:00,7.200000,-0.050920,
2025-10-16T06:15:39.387521+00:00,7.205000,-0.064600,
2025-10-16T06:15:39.392521+00:00,7.210000,-0.045980,
2025-10-16T06:15:39.397521+00:00,7.215000,-0.018240,
2025-10-16T06:15:39.402521+00:00,7.220000,-0.012160,
2025-10-16T06:15:39.407521+00:00,7.225000,-0.025840,
2025-10-16T06:15:39.412521+00:00,7.230000,-0.034580,
2025-10-16T06:15:39.417521+00:00,7.235000,-0.031160,
2025-10-16T06:15:39.422521+00:00,7.240000,-0.033060,
2025-10-16T06:15:39.427521+00:00,7.245000,-0.034200,
2025-10-16T06:15:39.432521+00:00,7.250000,-0.024320,
2025-10-16T06:15:39.437521+00:00,7.255000,-0.012540,
2025-10-16T06:15:39.442521+00:00,7.260000,-0.025840,
2025-10-16T06:15:39.447521+00:00,7.265000,-0.059280,
2025-10-16T06:15:39.452521+00:00,7.270000,-0.081320,
2025-10-16T06:15:39.457521+00:00,7.275000,-0.069540,
2025-10-16T06:15:39.462521+00:00,7.280000,-0.042940,
2025-10-16T06:15:39.467521+00:00,7.285000,-0.032680,
2025-10-16T06:15:39.472521+00:00,7.290000,-0.047880,
2025-10-16T06:15:39.477521+00:00,7.295000,-0.063840,
2025-10-16T06:15:39.482521+00:00,7.300000,-0.063080,
2025-10-16T06:15:39.487521+00:00,7.305000,-0.038760,
2025-10-16T06:15:39.492521+00:00,7.310000,-0.005700,
2025-10-16T06:15:39.497521+00:00,7.315000,0.010640,
2025-10-16T06:15:39.502521+00:00,7.320000,-0.002280,
2025-10-16T06:15:39.507521+00:00,7.325000,-0.029260,
2025-10-16T06:15:39.512521+00:00,7.330000,-0.046740,
2025-10-16T06:15:39.517521+00:00,7.335000,-0.050540,
2025-10-16T06:15:39.522521+00:00,7.340000,-0.051680,
2025-10-16T06:15:39.527521+00:00,7.345000,-0.049780,
2025-10-16T06:15:39.532521+00:00,7.350000,-0.042940,
2025-10-16T06:15:39.537521+00:00,7.355000,-0.034200,
2025-10-16T06:15:39.542521+00:00,7.360000,-0.036860,
2025-10-16T06:15:39.547521+00:00,7.365000,-0.049020,
2025-10-16T06:15:39.552521+00:00,7.370000,-0.061560,
2025-10-16T06:15:39.557521+00:00,7.375000,-0.064600,
2025-10-16T06:15:39.562521+00:00,7.380000,-0.051300,
2025-10-16T06:15:39.567521+00:00,7.385000,-0.031540,
2025-10-16T06:15:39.572521+00:00,7.390000,-0.019380,
2025-10-16T06:15:39.577521+00:00,7.395000,-0.019000,
2025-10-16T06:15:39.582521+00:00,7.400000,-0.027740,
2025-10-16T06:15:39.587521+00:00,7.405000,-0.035340,
2025-10-16T06:15:39.592521+00:00,7.410000,-0.035720,
2025-10-16T06:15:39.597521+00:00,7.415000,-0.039140,
2025-10-16T06:15:39.602521+00:00,7.420000,-0.047120,
2025-10-16T06:15:39.607521+00:00,7.425000,-0.049780,
2025-10-16T06:15:39.612521+00:00,7.430000,-0.041420,
2025-10-16T06:15:39.617521+00:00,7.435000,-0.028120,
2025-10-16T06:15:39.622521+00:00,7.440000,-0.028120,
2025-10-16T06:15:39.627521+00:00,7.445000,-0.041420,
2025-10-16T06:15:39.632521+00:00,7.450000,-0.049780,
2025-10-16T06:15:39.637521+00:00,7.455000,-0.042180,
2025-10-16T06:15:39.642521+00:00,7.460000,-0.034200,
2025-10-16T06:15:39.647521+00:00,7.465000,-0.039140,
2025-10-16T06:15:39.652521+00:00,7.470000,-0.050540,
2025-10-16T06:15:39.657521+00:00,7.475000,-0.053580,
2025-10-16T06:15:39.662521+00:00,7.480000,-0.044840,
2025-10-16T06:15:39.667521+00:00,7.485000,-0.037620,
2025-10-16T06:15:39.672521+00:00,7.490000,-0.043320,
2025-10-16T06:15:39.677521+00:00,7.495000,-0.046740,
2025-10-16T06:15:39.682521+00:00,7.500000,-0.035340,
2025-10-16T06:15:39.687521+00:00,7.505000,-0.020520,
2025-10-16T06:15:39.692521+00:00,7.510000,-0.016720,
2025-10-16T06:15:39.697521+00:00,7.515000,-0.027360,
2025-10-16T06:15:39.702521+00:00,7.520000,-0.045220,
2025-10-16T06:15:39.707521+00:00,7.525000,-0.050540,
2025-10-16T06:15:39.712521+00:00,7.530000,-0.039520,
2025-10-16T06:15:39.717521+00:00,7.535000,-0.027360,
2025-10-16T06:15:39.722521+00:00,7.540000,-0.020520,
2025-10-16T06:15:39.727521+00:00,7.545000,-0.023180,
2025-10-16T06:15:39.732521+00:00,7.550000,-0.031540,
2025-10-16T06:15:39.737521+00:00,7.555000,-0.050160,
2025-10-16T06:15:39.742521+00:00,7.560000,-0.066120,
2025-10-16T06:15:39.747521+00:00,7.565000,-0.072580,
2025-10-16T06:15:39.752521+00:00,7.570000,-0.063460,
2025-10-16T06:15:39.757521+00:00,7.575000,-0.048260,
2025-10-16T06:15:39.762521+00:00,7.580000,-0.035340,
2025-10-16T06:15:39.767521+00:00,7.585000,-0.027740,
2025-10-16T06:15:39.772521+00:00,7.590000,-0.026980,
2025-10-16T06:15:39.777521+00:00,7.595000,-0.030780,
2025-10-16T06:15:39.782521+00:00,7.600000,-0.033060,
2025-10-16T06:15:39.787521+00:00,7.605000,-0.036100,
2025-10-16T06:15:39.792521+00:00,7.610000,-0.039900,
2025-10-16T06:15:39.797521+00:00,7.615000,-0.046740,
2025-10-16T06:15:39.802521+00:00,7.620000,-0.055480,
2025-10-16T06:15:39.807521+00:00,7.625000,-0.052060,
2025-10-16T06:15:39.812521+00:00,7.630000,-0.026600,
2025-10-16T06:15:39.817521+00:00,7.635000,-0.006080,
2025-10-16T06:15:39.822521+00:00,7.640000,-0.010640,
2025-10-16T06:15:39.827521+00:00,7.645000,-0.032300,
2025-10-16T06:15:39.832521+00:00,7.650000,-0.046360,
2025-10-16T06:15:39.837521+00:00,7.655000,-0.046740,
2025-10-16T06:15:39.842521+00:00,7.660000,-0.044460,
2025-10-16T06:15:39.847521+00:00,7.665000,-0.052820,
2025-10-16T06:15:39.852521+00:00,7.670000,-0.056240,
2025-10-16T06:15:39.857521+00:00,7.675000,-0.034960,
2025-10-16T06:15:39.862521+00:00,7.680000,-0.007220,
2025-10-16T06:15:39.867521+00:00,7.685000,-0.007600,
2025-10-16T06:15:39.872521+00:00,7.690000,-0.035720,
2025-10-16T06:15:39.877521+00:00,7.695000,-0.064220,
2025-10-16T06:15:39.882521+00:00,7.700000,-0.070300,
2025-10-16T06:15:39.887521+00:00,7.705000,-0.053580,
2025-10-16T06:15:39.892521+00:00,7.710000,-0.038760,
2025-10-16T06:15:39.897521+00:00,7.715000,-0.041800,
2025-10-16T06:15:39.902521+00:00,7.720000,-0.047500,
2025-10-16T06:15:39.907521+00:00,7.725000,-0.039140,
2025-10-16T06:15:39.912521+00:00,7.730000,-0.022800,
2025-10-16T06:15:39.917521+00:00,7.735000,-0.021280,
2025-10-16T06:15:39.922521+00:00,7.740000,-0.036860,
2025-10-16T06:15:39.927521+00:00,7.745000,-0.045980,
2025-10-16T06:15:39.932521+00:00,7.750000,-0.034960,
2025-10-16T06:15:39.937521+00:00,7.755000,-0.017100,
2025-10-16T06:15:39.942521+00:00,7.760000,-0.017100,
2025-10-16T06:15:39.947521+00:00,7.765000,-0.036860,
2025-10-16T06:15:39.952521+00:00,7.770000,-0.053580,
2025-10-16T06:15:39.957521+00:00,7.775000,-0.048640,
2025-10-16T06:15:39.962521+00:00,7.780000,-0.033820,
2025-10-16T06:15:39.967521+00:00,7.785000,-0.030780,
2025-10-16T06:15:39.972521+00:00,7.790000,-0.045600,
2025-10-16T06:15:39.977521+00:00,7.795000,-0.060040,
2025-10-16T06:15:39.982521+00:00,7.800000,-0.060420,
2025-10-16T06:15:39.987521+00:00,7.805000,-0.055860,
2025-10-16T06:15:39.992521+00:00,7.810000,-0.051680,
2025-10-16T06:15:39.997521+00:00,7.815000,-0.050920,
2025-10-16T06:15:40.002521+00:00,7.820000,-0.049020,
2025-10-16T06:15:40.007521+00:00,7.825000,-0.046360,
2025-10-16T06:15:40.012521+00:00,7.830000,-0.048260,
2025-10-16T06:15:40.017521+00:00,7.835000,-0.055860,
2025-10-16T06:15:40.022521+00:00,7.840000,-0.055860,
2025-10-16T06:15:40.027521+00:00,7.845000,-0.049400,
2025-10-16T06:15:40.032521+00:00,7.850000,-0.045980,
2025-10-16T06:15:40.037521+00:00,7.855000,-0.056620,
2025-10-16T06:15:40.042521+00:00,7.860000,-0.072580,
2025-10-16T06:15:40.047521+00:00,7.865000,-0.078660,
2025-10-16T06:15:40.052521+00:00,7.870000,-0.066120,
2025-10-16T06:15:40.057521+00:00,7.875000,-0.052440,
2025-10-16T06:15:40.062521+00:00,7.880000,-0.051300,
2025-10-16T06:15:40.067521+00:00,7.885000,-0.047880,
2025-10-16T06:15:40.072521+00:00,7.890000,-0.027360,
2025-10-16T06:15:40.077521+00:00,7.895000,-0.012920,
2025-10-16T06:15:40.082521+00:00,7.900000,-0.028120,
2025-10-16T06:15:40.087521+00:00,7.905000,-0.053580,
2025-10-16T06:15:40.092521+00:00,7.910000,-0.055100,
2025-10-16T06:15:40.097521+00:00,7.915000,-0.025840,
2025-10-16T06:15:40.102521+00:00,7.920000,0.001140,
2025-10-16T06:15:40.107521+00:00,7.925000,-0.005700,
2025-10-16T06:15:40.112521+00:00,7.930000,-0.036100,
2025-10-16T06:15:40.117521+00:00,7.935000,-0.052060,
2025-10-16T06:15:40.122521+00:00,7.940000,-0.041040,
2025-10-16T06:15:40.127521+00:00,7.945000,-0.020900,
2025-10-16T06:15:40.132521+00:00,7.950000,-0.017100,
2025-10-16T06:15:40.137521+00:00,7.955000,-0.031160,
2025-10-16T06:15:40.142521+00:00,7.960000,-0.044840,
2025-10-16T06:15:40.147521+00:00,7.965000,-0.042940,
2025-10-16T06:15:40.152521+00:00,7.970000,-0.037240,
2025-10-16T06:15:40.157521+00:00,7.975000,-0.045220,
2025-10-16T06:15:40.162521+00:00,7.980000,-0.064220,
2025-10-16T06:15:40.167521+00:00,7.985000,-0.075620,
2025-10-16T06:15:40.172521+00:00,7.990000,-0.066500,
2025-10-16T06:15:40.177521+00:00,7.995000,-0.048260,
2025-10-16T06:15:40.182521+00:00,8.000000,-0.041800,
2025-10-16T06:15:40.187521+00:00,8.005000,-0.052440,
2025-10-16T06:15:40.192521+00:00,8.010000,-0.058900,
2025-10-16T06:15:40.197521+00:00,8.015000,-0.050540,
2025-10-16T06:15:40.202521+00:00,8.020000,-0.039900,
2025-10-16T06:15:40.207521+00:00,8.025000,-0.039520,
2025-10-16T06:15:40.212521+00:00,8.030000,-0.047880,
2025-10-16T06:15:40.217521+00:00,8.035000,-0.052440,
2025-10-16T06:15:40.222521+00:00,8.040000,-0.043700,
2025-10-16T06:15:40.227521+00:00,8.045000,-0.030400,
2025-10-16T06:15:40.232521+00:00,8.050000,-0.033440,
2025-10-16T06:15:40.237521+00:00,8.055000,-0.051300,
2025-10-16T06:15:40.242521+00:00,8.060000,-0.064980,
2025-10-16T06:15:40.247521+00:00,8.065000,-0.066120,
2025-10-16T06:15:40.252521+00:00,8.070000,-0.059280,
2025-10-16T06:15:40.257521+00:00,8.075000,-0.055480,
2025-10-16T06:15:40.262521+00:00,8.080000,-0.060420,
2025-10-16T06:15:40.267521+00:00,8.085000,-0.067260,
2025-10-16T06:15:40.272521+00:00,8.090000,-0.071060,
2025-10-16T06:15:40.277521+00:00,8.095000,-0.071440,
2025-10-16T06:15:40.282521+00:00,8.100000,-0.066880,
2025-10-16T06:15:40.287521+00:00,8.105000,-0.053960,
2025-10-16T06:15:40.292521+00:00,8.110000,-0.045220,
2025-10-16T06:15:40.297521+00:00,8.115000,-0.042940,
2025-10-16T06:15:40.302521+00:00,8.120000,-0.045980,
2025-10-16T06:15:40.307521+00:00,8.125000,-0.046740,
2025-10-16T06:15:40.312521+00:00,8.130000,-0.040280,
2025-10-16T06:15:40.317521+00:00,8.135000,-0.032680,
2025-10-16T06:15:40.322521+00:00,8.140000,-0.028500,
2025-10-16T06:15:40.327521+00:00,8.145000,-0.029260,
2025-10-16T06:15:40.332521+00:00,8.150000,-0.032300,
2025-10-16T06:15:40.337521+00:00,8.155000,-0.042940,
2025-10-16T06:15:40.342521+00:00,8.160000,-0.053960,
2025-10-16T06:15:40.347521+00:00,8.165000,-0.058140,
2025-10-16T06:15:40.352521+00:00,8.170000,-0.050920,
2025-10-16T06:15:40.357521+00:00,8.175000,-0.033440,
2025-10-16T06:15:40.362521+00:00,8.180000,-0.018620,
2025-10-16T06:15:40.367521+00:00,8.185000,-0.017100,
2025-10-16T06:15:40.372521+00:00,8.190000,-0.017860,
2025-10-16T06:15:40.377521+00:00,8.195000,-0.013680,
2025-10-16T06:15:40.382521+00:00,8.200000,-0.016720,
2025-10-16T06:15:40.387521+00:00,8.205000,-0.038380,
2025-10-16T06:15:40.392521+00:00,8.210000,-0.056620,
2025-10-16T06:15:40.397521+00:00,8.215000,-0.053580,
2025-10-16T06:15:40.402521+00:00,8.220000,-0.039520,
2025-10-16T06:15:40.407521+00:00,8.225000,-0.038380,
2025-10-16T06:15:40.412521+00:00,8.230000,-0.050160,
2025-10-16T06:15:40.417521+00:00,8.235000,-0.057760,
2025-10-16T06:15:40.422521+00:00,8.240000,-0.052440,
2025-10-16T06:15:40.427521+00:00,8.245000,-0.040660,
2025-10-16T06:15:40.432521+00:00,8.250000,-0.038000,
2025-10-16T06:15:40.437521+00:00,8.255000,-0.050920,
2025-10-16T06:15:40.442521+00:00,8.260000,-0.063840,
2025-10-16T06:15:40.447521+00:00,8.265000,-0.067260,
2025-10-16T06:15:40.452521+00:00,8.270000,-0.059660,
2025-10-16T06:15:40.457521+00:00,8.275000,-0.048260,
2025-10-16T06:15:40.462521+00:00,8.280000,-0.043320,
2025-10-16T06:15:40.467521+00:00,8.285000,-0.041800,
2025-10-16T06:15:40.472521+00:00,8.290000,-0.039520,
2025-10-16T06:15:40.477521+00:00,8.295000,-0.044460,
2025-10-16T06:15:40.482521+00:00,8.300000,-0.055860,
2025-10-16T06:15:40.487521+00:00,8.305000,-0.061560,
2025-10-16T06:15:40.492521+00:00,8.310000,-0.050540,
2025-10-16T06:15:40.497521+00:00,8.315000,-0.035720,
2025-10-16T06:15:40.502521+00:00,8.320000,-0.041420,
2025-10-16T06:15:40.507521+00:00,8.325000,-0.066120,
2025-10-16T06:15:40.512521+00:00,8.330000,-0.085880,
2025-10-16T06:15:40.517521+00:00,8.335000,-0.084360,
2025-10-16T06:15:40.522521+00:00,8.340000,-0.071060,
2025-10-16T06:15:40.527521+00:00,8.345000,-0.065360,
2025-10-16T06:15:40.532521+00:00,8.350000,-0.066120,
2025-10-16T06:15:40.537521+00:00,8.355000,-0.060040,
2025-10-16T06:15:40.542521+00:00,8.360000,-0.042560,
2025-10-16T06:15:40.547521+00:00,8.365000,-0.026600,
2025-10-16T06:15:40.552521+00:00,8.370000,-0.030780,
2025-10-16T06:15:40.557521+00:00,8.375000,-0.049400,
2025-10-16T06:15:40.562521+00:00,8.380000,-0.061940,
2025-10-16T06:15:40.567521+00:00,8.385000,-0.059280,
2025-10-16T06:15:40.572521+00:00,8.390000,-0.050920,
2025-10-16T06:15:40.577521+00:00,8.395000,-0.050160,
2025-10-16T06:15:40.582521+00:00,8.400000,-0.052440,
2025-10-16T06:15:40.587521+00:00,8.405000,-0.042940,
2025-10-16T06:15:40.592521+00:00,8.410000,-0.021280,
2025-10-16T06:15:40.597521+00:00,8.415000,-0.001520,
2025-10-16T06:15:40.602521+00:00,8.420000,0.000380,
2025-10-16T06:15:40.607521+00:00,8.425000,-0.011020,
2025-10-16T06:15:40.612521+00:00,8.430000,-0.026980,
2025-10-16T06:15:40.617521+00:00,8.435000,-0.051680,
2025-10-16T06:15:40.622521+00:00,8.440000,-0.069920,
2025-10-16T06:15:40.627521+00:00,8.445000,-0.062700,
2025-10-16T06:15:40.632521+00:00,8.450000,-0.039900,
2025-10-16T06:15:40.637521+00:00,8.455000,-0.028500,
2025-10-16T06:15:40.642521+00:00,8.460000,-0.036100,
2025-10-16T06:15:40.647521+00:00,8.465000,-0.046740,
2025-10-16T06:15:40.652521+00:00,8.470000,-0.044080,
2025-10-16T06:15:40.657521+00:00,8.475000,-0.027740,
2025-10-16T06:15:40.662521+00:00,8.480000,-0.010640,
2025-10-16T06:15:40.667521+00:00,8.485000,-0.008740,
2025-10-16T06:15:40.672521+00:00,8.490000,-0.020520,
2025-10-16T06:15:40.677521+00:00,8.495000,-0.036860,
2025-10-16T06:15:40.682521+00:00,8.500000,-0.045600,
2025-10-16T06:15:40.687521+00:00,8.505000,-0.038760,
2025-10-16T06:15:40.692521+00:00,8.510000,-0.022800,
2025-10-16T06:15:40.697521+00:00,8.515000,-0.017100,
2025-10-16T06:15:40.702521+00:00,8.520000,-0.029260,
2025-10-16T06:15:40.707521+00:00,8.525000,-0.049020,
2025-10-16T06:15:40.712521+00:00,8.530000,-0.061940,
2025-10-16T06:15:40.717521+00:00,8.535000,-0.065360,
2025-10-16T06:15:40.722521+00:00,8.540000,-0.060800,
2025-10-16T06:15:40.727521+00:00,8.545000,-0.046360,
2025-10-16T06:15:40.732521+00:00,8.550000,-0.026220,
2025-10-16T06:15:40.737521+00:00,8.555000,-0.014440,
2025-10-16T06:15:40.742521+00:00,8.560000,-0.024700,
2025-10-16T06:15:40.747521+00:00,8.565000,-0.045600,
2025-10-16T06:15:40.752521+00:00,8.570000,-0.055480,
2025-10-16T06:15:40.757521+00:00,8.575000,-0.045600,
2025-10-16T06:15:40.762521+00:00,8.580000,-0.028880,
2025-10-16T06:15:40.767521+00:00,8.585000,-0.034200,
2025-10-16T06:15:40.772521+00:00,8.590000,-0.058140,
2025-10-16T06:15:40.777521+00:00,8.595000,-0.074480,
2025-10-16T06:15:40.782521+00:00,8.600000,-0.072580,
2025-10-16T06:15:40.787521+00:00,8.605000,-0.060420,
2025-10-16T06:15:40.792521+00:00,8.610000,-0.043700,
2025-10-16T06:15:40.797521+00:00,8.615000,-0.035720,
2025-10-16T06:15:40.802521+00:00,8.620000,-0.039900,
2025-10-16T06:15:40.807521+00:00,8.625000,-0.041800,
2025-10-16T06:15:40.812521+00:00,8.630000,-0.037240,
2025-10-16T06:15:40.817521+00:00,8.635000,-0.024700,
2025-10-16T06:15:40.822521+00:00,8.640000,-0.013300,
2025-10-16T06:15:40.827521+00:00,8.645000,-0.014440,
2025-10-16T06:15:40.832521+00:00,8.650000,-0.032680,
2025-10-16T06:15:40.837521+00:00,8.655000,-0.050920,
2025-10-16T06:15:40.842521+00:00,8.660000,-0.050920,
2025-10-16T06:15:40.847521+00:00,8.665000,-0.036860,
2025-10-16T06:15:40.852521+00:00,8.670000,-0.019380,
2025-10-16T06:15:40.857521+00:00,8.675000,-0.016720,
2025-10-16T06:15:40.862521+00:00,8.680000,-0.033060,
2025-10-16T06:15:40.867521+00:00,8.685000,-0.049020,
2025-10-16T06:15:40.872521+00:00,8.690000,-0.046360,
2025-10-16T06:15:40.877521+00:00,8.695000,-0.035340,
2025-10-16T06:15:40.882521+00:00,8.700000,-0.033440,
2025-10-16T06:15:40.887521+00:00,8.705000,-0.036860,
2025-10-16T06:15:40.892521+00:00,8.710000,-0.033440,
2025-10-16T06:15:40.897521+00:00,8.715000,-0.023560,
2025-10-16T06:15:40.902521+00:00,8.720000,-0.018620,
2025-10-16T06:15:40.907521+00:00,8.725000,-0.019000,
2025-10-16T06:15:40.912521+00:00,8.730000,-0.025080,
2025-10-16T06:15:40.917521+00:00,8.735000,-0.036860,
2025-10-16T06:15:40.922521+00:00,8.740000,-0.055480,
2025-10-16T06:15:40.927521+00:00,8.745000,-0.064220,
2025-10-16T06:15:40.932521+00:00,8.750000,-0.044080,
2025-10-16T06:15:40.937521+00:00,8.755000,-0.017860,
2025-10-16T06:15:40.942521+00:00,8.760000,-0.017480,
2025-10-16T06:15:40.947521+00:00,8.765000,-0.037240,
2025-10-16T06:15:40.952521+00:00,8.770000,-0.050160,
2025-10-16T06:15:40.957521+00:00,8.775000,-0.049400,
2025-10-16T06:15:40.962521+00:00,8.780000,-0.042180,
2025-10-16T06:15:40.967521+00:00,8.785000,-0.034200,
2025-10-16T06:15:40.972521+00:00,8.790000,-0.033440,
2025-10-16T06:15:40.977521+00:00,8.795000,-0.041040,
2025-10-16T06:15:40.982521+00:00,8.800000,-0.048260,
2025-10-16T06:15:40.987521+00:00,8.805000,-0.044460,
2025-10-16T06:15:40.992521+00:00,8.810000,-0.026220,
2025-10-16T06:15:40.997521+00:00,8.815000,-0.020140,
2025-10-16T06:15:41.002521+00:00,8.820000,-0.039520,
2025-10-16T06:15:41.007521+00:00,8.825000,-0.061180,
2025-10-16T06:15:41.012521+00:00,8.830000,-0.055480,
2025-10-16T06:15:41.017521+00:00,8.835000,-0.036100,
2025-10-16T06:15:41.022521+00:00,8.840000,-0.027360,
2025-10-16T06:15:41.027521+00:00,8.845000,-0.037620,
2025-10-16T06:15:41.032521+00:00,8.850000,-0.057380,
2025-10-16T06:15:41.037521+00:00,8.855000,-0.068400,
2025-10-16T06:15:41.042521+00:00,8.860000,-0.060040,
2025-10-16T06:15:41.047521+00:00,8.865000,-0.043320,
2025-10-16T06:15:41.052521+00:00,8.870000,-0.031540,
2025-10-16T06:15:41.057521+00:00,8.875000,-0.027740,
2025-10-16T06:15:41.062521+00:00,8.880000,-0.022800,
2025-10-16T06:15:41.067521+00:00,8.885000,-0.024700,
2025-10-16T06:15:41.072521+00:00,8.890000,-0.041800,
2025-10-16T06:15:41.077521+00:00,8.895000,-0.067640,
2025-10-16T06:15:41.082521+00:00,8.900000,-0.080940,
2025-10-16T06:15:41.087521+00:00,8.905000,-0.068400,
2025-10-16T06:15:41.092521+00:00,8.910000,-0.048640,
2025-10-16T06:15:41.097521+00:00,8.915000,-0.044460,
2025-10-16T06:15:41.102521+00:00,8.920000,-0.053580,
2025-10-16T06:15:41.107521+00:00,8.925000,-0.053200,
2025-10-16T06:15:41.112521+00:00,8.930000,-0.033440,
2025-10-16T06:15:41.117521+00:00,8.935000,-0.021660,
2025-10-16T06:15:41.122521+00:00,8.940000,-0.034200,
2025-10-16T06:15:41.127521+00:00,8.945000,-0.052820,
2025-10-16T06:15:41.132521+00:00,8.950000,-0.052820,
2025-10-16T06:15:41.137521+00:00,8.955000,-0.034960,
2025-10-16T06:15:41.142521+00:00,8.960000,-0.019760,
2025-10-16T06:15:41.147521+00:00,8.965000,-0.014440,
2025-10-16T06:15:41.152521+00:00,8.970000,-0.012160,
2025-10-16T06:15:41.157521+00:00,8.975000,-0.006840,
2025-10-16T06:15:41.162521+00:00,8.980000,-0.013300,
2025-10-16T06:15:41.167521+00:00,8.985000,-0.031920,
2025-10-16T06:15:41.172521+00:00,8.990000,-0.045220,
2025-10-16T06:15:41.177521+00:00,8.995000,-0.036860,
2025-10-16T06:15:41.182521+00:00,9.000000,-0.019760,
2025-10-16T06:15:41.187521+00:00,9.005000,-0.009500,
2025-10-16T06:15:41.192521+00:00,9.010000,-0.005700,
2025-10-16T06:15:41.197521+00:00,9.015000,-0.012920,
2025-10-16T06:15:41.202521+00:00,9.020000,-0.033820,
2025-10-16T06:15:41.207521+00:00,9.025000,-0.057380,
2025-10-16T06:15:41.212521+00:00,9.030000,-0.063460,
2025-10-16T06:15:41.217521+00:00,9.035000,-0.049780,
2025-10-16T06:15:41.222521+00:00,9.040000,-0.033440,
2025-10-16T06:15:41.227521+00:00,9.045000,-0.037240,
2025-10-16T06:15:41.232521+00:00,9.050000,-0.054340,
2025-10-16T06:15:41.237521+00:00,9.055000,-0.061180,
2025-10-16T06:15:41.242521+00:00,9.060000,-0.042180,
2025-10-16T06:15:41.247521+00:00,9.065000,-0.018620,
2025-10-16T06:15:41.252521+00:00,9.070000,-0.022040,
2025-10-16T06:15:41.257521+00:00,9.075000,-0.043320,
2025-10-16T06:15:41.262521+00:00,9.080000,-0.050920,
2025-10-16T06:15:41.267521+00:00,9.085000,-0.039520,
2025-10-16T06:15:41.272521+00:00,9.090000,-0.030020,
2025-10-16T06:15:41.277521+00:00,9.095000,-0.042560,
2025-10-16T06:15:41.282521+00:00,9.100000,-0.066500,
2025-10-16T06:15:41.287521+00:00,9.105000,-0.069920,
2025-10-16T06:15:41.292521+00:00,9.110000,-0.047880,
2025-10-16T06:15:41.297521+00:00,9.115000,-0.031920,
2025-10-16T06:15:41.302521+00:00,9.120000,-0.035340,
2025-10-16T06:15:41.307521+00:00,9.125000,-0.039520,
2025-10-16T06:15:41.312521+00:00,9.130000,-0.032680,
2025-10-16T06:15:41.317521+00:00,9.135000,-0.028500,
2025-10-16T06:15:41.322521+00:00,9.140000,-0.035340,
2025-10-16T06:15:41.327521+00:00,9.145000,-0.043320,
2025-10-16T06:15:41.332521+00:00,9.150000,-0.046360,
2025-10-16T06:15:41.337521+00:00,9.155000,-0.053580,
2025-10-16T06:15:41.342521+00:00,9.160000,-0.063460,
2025-10-16T06:15:41.347521+00:00,9.165000,-0.058520,
2025-10-16T06:15:41.352521+00:00,9.170000,-0.030400,
2025-10-16T06:15:41.357521+00:00,9.175000,-0.006460,
2025-10-16T06:15:41.362521+00:00,9.180000,-0.010640,
2025-10-16T06:15:41.367521+00:00,9.185000,-0.034200,
2025-10-16T06:15:41.372521+00:00,9.190000,-0.047500,
2025-10-16T06:15:41.377521+00:00,9.195000,-0.044840,
2025-10-16T06:15:41.382521+00:00,9.200000,-0.044080,
2025-10-16T06:15:41.387521+00:00,9.205000,-0.049400,
2025-10-16T06:15:41.392521+00:00,9.210000,-0.049020,
2025-10-16T06:15:41.397521+00:00,9.215000,-0.044080,
2025-10-16T06:15:41.402521+00:00,9.220000,-0.044080,
2025-10-16T06:15:41.407521+00:00,9.225000,-0.045600,
2025-10-16T06:15:41.412521+00:00,9.230000,-0.030400,
2025-10-16T06:15:41.417521+00:00,9.235000,-0.008360,
2025-10-16T06:15:41.422521+00:00,9.240000,-0.010260,
2025-10-16T06:15:41.427521+00:00,9.245000,-0.038000,
2025-10-16T06:15:41.432521+00:00,9.250000,-0.053580,
2025-10-16T06:15:41.437521+00:00,9.255000,-0.039140,
2025-10-16T06:15:41.442521+00:00,9.260000,-0.023560,
2025-10-16T06:15:41.447521+00:00,9.265000,-0.031920,
2025-10-16T06:15:41.452521+00:00,9.270000,-0.047500,
2025-10-16T06:15:41.457521+00:00,9.275000,-0.044840,
2025-10-16T06:15:41.462521+00:00,9.280000,-0.026220,
2025-10-16T06:15:41.467521+00:00,9.285000,-0.021660,
2025-10-16T06:15:41.472521+00:00,9.290000,-0.039140,
2025-10-16T06:15:41.477521+00:00,9.295000,-0.059280,
2025-10-16T06:15:41.482521+00:00,9.300000,-0.068020,
2025-10-16T06:15:41.487521+00:00,9.305000,-0.066120,
2025-10-16T06:15:41.492521+00:00,9.310000,-0.057380,
2025-10-16T06:15:41.497521+00:00,9.315000,-0.052440,
2025-10-16T06:15:41.502521+00:00,9.320000,-0.058520,
2025-10-16T06:15:41.507521+00:00,9.325000,-0.064980,
2025-10-16T06:15:41.512521+00:00,9.330000,-0.058900,
2025-10-16T06:15:41.517521+00:00,9.335000,-0.047120,
2025-10-16T06:15:41.522521+00:00,9.340000,-0.042560,
2025-10-16T06:15:41.527521+00:00,9.345000,-0.039900,
2025-10-16T06:15:41.532521+00:00,9.350000,-0.033440,
2025-10-16T06:15:41.537521+00:00,9.355000,-0.026600,
2025-10-16T06:15:41.542521+00:00,9.360000,-0.035340,
2025-10-16T06:15:41.547521+00:00,9.365000,-0.053580,
2025-10-16T06:15:41.552521+00:00,9.370000,-0.067640,
2025-10-16T06:15:41.557521+00:00,9.375000,-0.063840,
2025-10-16T06:15:41.562521+00:00,9.380000,-0.053200,
2025-10-16T06:15:41.567521+00:00,9.385000,-0.042940,
2025-10-16T06:15:41.572521+00:00,9.390000,-0.034580,
2025-10-16T06:15:41.577521+00:00,9.395000,-0.027740,
2025-10-16T06:15:41.582521+00:00,9.400000,-0.026600,
2025-10-16T06:15:41.587521+00:00,9.405000,-0.029260,
2025-10-16T06:15:41.592521+00:00,9.410000,-0.031920,
2025-10-16T06:15:41.597521+00:00,9.415000,-0.039900,
2025-10-16T06:15:41.602521+00:00,9.420000,-0.056240,
2025-10-16T06:15:41.607521+00:00,9.425000,-0.065360,
2025-10-16T06:15:41.612521+00:00,9.430000,-0.061180,
2025-10-16T06:15:41.617521+00:00,9.435000,-0.051300,
2025-10-16T06:15:41.622521+00:00,9.440000,-0.045600,
2025-10-16T06:15:41.627521+00:00,9.445000,-0.049780,
2025-10-16T06:15:41.632521+00:00,9.450000,-0.053580,
2025-10-16T06:15:41.637521+00:00,9.455000,-0.048260,
2025-10-16T06:15:41.642521+00:00,9.460000,-0.041040,
2025-10-16T06:15:41.647521+00:00,9.465000,-0.041800,
2025-10-16T06:15:41.652521+00:00,9.470000,-0.047500,
2025-10-16T06:15:41.657521+00:00,9.475000,-0.051300,
2025-10-16T06:15:41.662521+00:00,9.480000,-0.052440,
2025-10-16T06:15:41.667521+00:00,9.485000,-0.052820,
2025-10-16T06:15:41.672521+00:00,9.490000,-0.046360,
2025-10-16T06:15:41.677521+00:00,9.495000,-0.025460,
2025-10-16T06:15:41.682521+00:00,9.500000,-0.006080,
2025-10-16T06:15:41.687521+00:00,9.505000,-0.010640,
2025-10-16T06:15:41.692521+00:00,9.510000,-0.038380,
2025-10-16T06:15:41.697521+00:00,9.515000,-0.055860,
2025-10-16T06:15:41.702521+00:00,9.520000,-0.052820,
2025-10-16T06:15:41.707521+00:00,9.525000,-0.043320,
2025-10-16T06:15:41.712521+00:00,9.530000,-0.048640,
2025-10-16T06:15:41.717521+00:00,9.535000,-0.064220,
2025-10-16T06:15:41.722521+00:00,9.540000,-0.076760,
2025-10-16T06:15:41.727521+00:00,9.545000,-0.071440,
2025-10-16T06:15:41.732521+00:00,9.550000,-0.058520,
2025-10-16T06:15:41.737521+00:00,9.555000,-0.049400,
2025-10-16T06:15:41.742521+00:00,9.560000,-0.044080,
2025-10-16T06:15:41.747521+00:00,9.565000,-0.039140,
2025-10-16T06:15:41.752521+00:00,9.570000,-0.038760,
2025-10-16T06:15:41.757521+00:00,9.575000,-0.048260,
2025-10-16T06:15:41.762521+00:00,9.580000,-0.054340,
2025-10-16T06:15:41.767521+00:00,9.585000,-0.042940,
2025-10-16T06:15:41.772521+00:00,9.590000,-0.023940,
2025-10-16T06:15:41.777521+00:00,9.595000,-0.019380,
2025-10-16T06:15:41.782521+00:00,9.600000,-0.031540,
2025-10-16T06:15:41.787521+00:00,9.605000,-0.041420,
2025-10-16T06:15:41.792521+00:00,9.610000,-0.036860,
2025-10-16T06:15:41.797521+00:00,9.615000,-0.030780,
2025-10-16T06:15:41.802521+00:00,9.620000,-0.039140,
2025-10-16T06:15:41.807521+00:00,9.625000,-0.046740,
2025-10-16T06:15:41.812521+00:00,9.630000,-0.041420,
2025-10-16T06:15:41.817521+00:00,9.635000,-0.040660,
2025-10-16T06:15:41.822521+00:00,9.640000,-0.056240,
2025-10-16T06:15:41.827521+00:00,9.645000,-0.066880,
2025-10-16T06:15:41.832521+00:00,9.650000,-0.059660,
2025-10-16T06:15:41.837521+00:00,9.655000,-0.045220,
2025-10-16T06:15:41.842521+00:00,9.660000,-0.047120,
2025-10-16T06:15:41.847521+00:00,9.665000,-0.059660,
2025-10-16T06:15:41.852521+00:00,9.670000,-0.057380,
2025-10-16T06:15:41.857521+00:00,9.675000,-0.041420,
2025-10-16T06:15:41.862521+00:00,9.680000,-0.038760,
2025-10-16T06:15:41.867521+00:00,9.685000,-0.046360,
2025-10-16T06:15:41.872521+00:00,9.690000,-0.045600,
2025-10-16T06:15:41.877521+00:00,9.695000,-0.037240,
2025-10-16T06:15:41.882521+00:00,9.700000,-0.044080,
2025-10-16T06:15:41.887521+00:00,9.705000,-0.061940,
2025-10-16T06:15:41.892521+00:00,9.710000,-0.063460,
2025-10-16T06:15:41.897521+00:00,9.715000,-0.045980,
2025-10-16T06:15:41.902521+00:00,9.720000,-0.034580,
2025-10-16T06:15:41.907521+00:00,9.725000,-0.044840,
2025-10-16T06:15:41.912521+00:00,9.730000,-0.060040,
2025-10-16T06:15:41.917521+00:00,9.735000,-0.058900,
2025-10-16T06:15:41.922521+00:00,9.740000,-0.045220,
2025-10-16T06:15:41.927521+00:00,9.745000,-0.031920,
2025-10-16T06:15:41.932521+00:00,9.750000,-0.024320,
2025-10-16T06:15:41.937521+00:00,9.755000,-0.017100,
2025-10-16T06:15:41.942521+00:00,9.760000,-0.012160,
2025-10-16T06:15:41.947521+00:00,9.765000,-0.015200,
2025-10-16T06:15:41.952521+00:00,9.770000,-0.026600,
2025-10-16T06:15:41.957521+00:00,9.775000,-0.041800,
2025-10-16T06:15:41.962521+00:00,9.780000,-0.045220,
2025-10-16T06:15:41.967521+00:00,9.785000,-0.035720,
2025-10-16T06:15:41.972521+00:00,9.790000,-0.029640,
2025-10-16T06:15:41.977521+00:00,9.795000,-0.031920,
2025-10-16T06:15:41.982521+00:00,9.800000,-0.031540,
2025-10-16T06:15:41.987521+00:00,9.805000,-0.029260,
2025-10-16T06:15:41.992521+00:00,9.810000,-0.034960,
2025-10-16T06:15:41.997521+00:00,9.815000,-0.050160,
2025-10-16T06:15:42.002521+00:00,9.820000,-0.057760,
2025-10-16T06:15:42.007521+00:00,9.825000,-0.054340,
2025-10-16T06:15:42.012521+00:00,9.830000,-0.048260,
2025-10-16T06:15:42.017521+00:00,9.835000,-0.049400,
2025-10-16T06:15:42.022521+00:00,9.840000,-0.052060,
2025-10-16T06:15:42.027521+00:00,9.845000,-0.036860,
2025-10-16T06:15:42.032521+00:00,9.850000,-0.015200,
2025-10-16T06:15:42.037521+00:00,9.855000,-0.014060,
2025-10-16T06:15:42.042521+00:00,9.860000,-0.036100,
2025-10-16T06:15:42.047521+00:00,9.865000,-0.053580,
2025-10-16T06:15:42.052521+00:00,9.870000,-0.051300,
2025-10-16T06:15:42.057521+00:00,9.875000,-0.038000,
2025-10-16T06:15:42.062521+00:00,9.880000,-0.038380,
2025-10-16T06:15:42.067521+00:00,9.885000,-0.050920,
2025-10-16T06:15:42.072521+00:00,9.890000,-0.055860,
2025-10-16T06:15:42.077521+00:00,9.895000,-0.045600,
2025-10-16T06:15:42.082521+00:00,9.900000,-0.038000,
2025-10-16T06:15:42.087521+00:00,9.905000,-0.038380,
2025-10-16T06:15:42.092521+00:00,9.910000,-0.035340,
2025-10-16T06:15:42.097521+00:00,9.915000,-0.025080,
2025-10-16T06:15:42.102521+00:00,9.920000,-0.025080,
2025-10-16T06:15:42.107521+00:00,9.925000,-0.035340,
2025-10-16T06:15:42.112521+00:00,9.930000,-0.036860,
2025-10-16T06:15:42.117521+00:00,9.935000,-0.031920,
2025-10-16T06:15:42.122521+00:00,9.940000,-0.032300,
2025-10-16T06:15:42.127521+00:00,9.945000,-0.042560,
2025-10-16T06:15:42.132521+00:00,9.950000,-0.043320,
2025-10-16T06:15:42.137521+00:00,9.955000,-0.038760,
2025-10-16T06:15:42.142521+00:00,9.960000,-0.040660,
2025-10-16T06:15:42.147521+00:00,9.965000,-0.049400,
2025-10-16T06:15:42.152521+00:00,9.970000,-0.050160,
2025-10-16T06:15:42.157521+00:00,9.975000,-0.047120,
2025-10-16T06:15:42.162521+00:00,9.980000,-0.051680,
2025-10-16T06:15:42.167521+00:00,9.985000,-0.059660,
2025-10-16T06:15:42.172521+00:00,9.990000,-0.057760,
2025-10-16T06:15:42.177521+00:00,9.995000,-0.045980,
2025-10-16T06:15:42.182521+00:00,10.000000,-0.034580,
2025-10-16T06:15:42.187521+00:00,10.005000,-0.029640,
2025-10-16T06:15:42.192521+00:00,10.010000,-0.025840,
2025-10-16T06:15:42.197521+00:00,10.015000,-0.031160,
2025-10-16T06:15:42.202521+00:00,10.020000,-0.045980,
2025-10-16T06:15:42.207521+00:00,10.025000,-0.054720,
2025-10-16T06:15:42.212521+00:00,10.030000,-0.039900,
2025-10-16T06:15:42.217521+00:00,10.035000,-0.021660,
2025-10-16T06:15:42.222521+00:00,10.040000,-0.019380,
2025-10-16T06:15:42.227521+00:00,10.045000,-0.032300,
2025-10-16T06:15:42.232521+00:00,10.050000,-0.039900,
2025-10-16T06:15:42.237521+00:00,10.055000,-0.042940,
2025-10-16T06:15:42.242521+00:00,10.060000,-0.047880,
2025-10-16T06:15:42.247521+00:00,10.065000,-0.055480,
2025-10-16T06:15:42.252521+00:00,10.070000,-0.053960,
2025-10-16T06:15:42.257521+00:00,10.075000,-0.037620,
2025-10-16T06:15:42.262521+00:00,10.080000,-0.017100,
2025-10-16T06:15:42.267521+00:00,10.085000,-0.007600,
2025-10-16T06:15:42.272521+00:00,10.090000,-0.014060,
2025-10-16T06:15:42.277521+00:00,10.095000,-0.031540,
2025-10-16T06:15:42.282521+00:00,10.100000,-0.044080,
2025-10-16T06:15:42.287521+00:00,10.105000,-0.048260,
2025-10-16T06:15:42.292521+00:00,10.110000,-0.050540,
2025-10-16T06:15:42.297521+00:00,10.115000,-0.052820,
2025-10-16T06:15:42.302521+00:00,10.120000,-0.050920,
2025-10-16T06:15:42.307521+00:00,10.125000,-0.035720,
2025-10-16T06:15:42.312521+00:00,10.130000,-0.015960,
2025-10-16T06:15:42.317521+00:00,10.135000,-0.009120,
2025-10-16T06:15:42.322521+00:00,10.140000,-0.019000,
2025-10-16T06:15:42.327521+00:00,10.145000,-0.031160,
2025-10-16T06:15:42.332521+00:00,10.150000,-0.042560,
2025-10-16T06:15:42.337521+00:00,10.155000,-0.054720,
2025-10-16T06:15:42.342521+00:00,10.160000,-0.061940,
2025-10-16T06:15:42.347521+00:00,10.165000,-0.059280,
2025-10-16T06:15:42.352521+00:00,10.170000,-0.057380,
2025-10-16T06:15:42.357521+00:00,10.175000,-0.061180,
2025-10-16T06:15:42.362521+00:00,10.180000,-0.071440,
2025-10-16T06:15:42.367521+00:00,10.185000,-0.076760,
2025-10-16T06:15:42.372521+00:00,10.190000,-0.069160,
2025-10-16T06:15:42.377521+00:00,10.195000,-0.055480,
2025-10-16T06:15:42.382521+00:00,10.200000,-0.045980,
2025-10-16T06:15:42.387521+00:00,10.205000,-0.045600,
2025-10-16T06:15:42.392521+00:00,10.210000,-0.053200,
2025-10-16T06:15:42.397521+00:00,10.215000,-0.060800,
2025-10-16T06:15:42.402521+00:00,10.220000,-0.063460,
2025-10-16T06:15:42.407521+00:00,10.225000,-0.059280,
2025-10-16T06:15:42.412521+00:00,10.230000,-0.057000,
2025-10-16T06:15:42.417521+00:00,10.235000,-0.060420,
2025-10-16T06:15:42.422521+00:00,10.240000,-0.064220,
2025-10-16T06:15:42.427521+00:00,10.245000,-0.057760,
2025-10-16T06:15:42.432521+00:00,10.250000,-0.044840,
2025-10-16T06:15:42.437521+00:00,10.255000,-0.033820,
2025-10-16T06:15:42.442521+00:00,10.260000,-0.034200,
2025-10-16T06:15:42.447521+00:00,10.265000,-0.045220,
2025-10-16T06:15:42.452521+00:00,10.270000,-0.056620,
2025-10-16T06:15:42.457521+00:00,10.275000,-0.054340,
2025-10-16T06:15:42.462521+00:00,10.280000,-0.039900,
2025-10-16T06:15:42.467521+00:00,10.285000,-0.031160,
2025-10-16T06:15:42.472521+00:00,10.290000,-0.042940,
2025-10-16T06:15:42.477521+00:00,10.295000,-0.064980,
2025-10-16T06:15:42.482521+00:00,10.300000,-0.069540,
2025-10-16T06:15:42.487521+00:00,10.305000,-0.044840,
2025-10-16T06:15:42.492521+00:00,10.310000,-0.020140,
2025-10-16T06:15:42.497521+00:00,10.315000,-0.023560,
2025-10-16T06:15:42.502521+00:00,10.320000,-0.044080,
2025-10-16T06:15:42.507521+00:00,10.325000,-0.053200,
2025-10-16T06:15:42.512521+00:00,10.330000,-0.038760,
2025-10-16T06:15:42.517521+00:00,10.335000,-0.022040,
2025-10-16T06:15:42.522521+00:00,10.340000,-0.016340,
2025-10-16T06:15:42.527521+00:00,10.345000,-0.022420,
2025-10-16T06:15:42.532521+00:00,10.350000,-0.030780,
2025-10-16T06:15:42.537521+00:00,10.355000,-0.032680,
2025-10-16T06:15:42.542521+00:00,10.360000,-0.023940,
2025-10-16T06:15:42.547521+00:00,10.365000,-0.017480,
2025-10-16T06:15:42.552521+00:00,10.370000,-0.030020,
2025-10-16T06:15:42.557521+00:00,10.375000,-0.052440,
2025-10-16T06:15:42.562521+00:00,10.380000,-0.052820,
2025-10-16T06:15:42.567521+00:00,10.385000,-0.033060,
2025-10-16T06:15:42.572521+00:00,10.390000,-0.024320,
2025-10-16T06:15:42.577521+00:00,10.395000,-0.033820,
2025-10-16T06:15:42.582521+00:00,10.400000,-0.046740,
2025-10-16T06:15:42.587521+00:00,10.405000,-0.051300,
2025-10-16T06:15:42.592521+00:00,10.410000,-0.044840,
2025-10-16T06:15:42.597521+00:00,10.415000,-0.034960,
2025-10-16T06:15:42.602521+00:00,10.420000,-0.026980,
2025-10-16T06:15:42.607521+00:00,10.425000,-0.029260,
2025-10-16T06:15:42.612521+00:00,10.430000,-0.038760,
2025-10-16T06:15:42.617521+00:00,10.435000,-0.051680,
2025-10-16T06:15:42.622521+00:00,10.440000,-0.054720,
2025-10-16T06:15:42.627521+00:00,10.445000,-0.046740,
2025-10-16T06:15:42.632521+00:00,10.450000,-0.043320,
2025-10-16T06:15:42.637521+00:00,10.455000,-0.043320,
2025-10-16T06:15:42.642521+00:00,10.460000,-0.041800,
2025-10-16T06:15:42.647521+00:00,10.465000,-0.037620,
2025-10-16T06:15:42.652521+00:00,10.470000,-0.034960,
2025-10-16T06:15:42.657521+00:00,10.475000,-0.026220,
2025-10-16T06:15:42.662521+00:00,10.480000,-0.017860,
2025-10-16T06:15:42.667521+00:00,10.485000,-0.017860,
2025-10-16T06:15:42.672521+00:00,10.490000,-0.031920,
2025-10-16T06:15:42.677521+00:00,10.495000,-0.053580,
2025-10-16T06:15:42.682521+00:00,10.500000,-0.070300,
2025-10-16T06:15:42.687521+00:00,10.505000,-0.068020,
2025-10-16T06:15:42.692521+00:00,10.510000,-0.057380,
2025-10-16T06:15:42.697521+00:00,10.515000,-0.054340,
2025-10-16T06:15:42.702521+00:00,10.520000,-0.057380,
2025-10-16T06:15:42.707521+00:00,10.525000,-0.051680,
2025-10-16T06:15:42.712521+00:00,10.530000,-0.037240,
2025-10-16T06:15:42.717521+00:00,10.535000,-0.027740,
2025-10-16T06:15:42.722521+00:00,10.540000,-0.031540,
2025-10-16T06:15:42.727521+00:00,10.545000,-0.042180,
2025-10-16T06:15:42.732521+00:00,10.550000,-0.042180,
2025-10-16T06:15:42.737521+00:00,10.555000,-0.030400,
2025-10-16T06:15:42.742521+00:00,10.560000,-0.020520,
2025-10-16T06:15:42.747521+00:00,10.565000,-0.015960,
2025-10-16T06:15:42.752521+00:00,10.570000,-0.024700,
2025-10-16T06:15:42.757521+00:00,10.575000,-0.039900,
2025-10-16T06:15:42.762521+00:00,10.580000,-0.053200,
2025-10-16T06:15:42.767521+00:00,10.585000,-0.052820,
2025-10-16T06:15:42.772521+00:00,10.590000,-0.042180,
2025-10-16T06:15:42.777521+00:00,10.595000,-0.030020,
2025-10-16T06:15:42.782521+00:00,10.600000,-0.025080,
2025-10-16T06:15:42.787521+00:00,10.605000,-0.028880,
2025-10-16T06:15:42.792521+00:00,10.610000,-0.037240,
2025-10-16T06:15:42.797521+00:00,10.615000,-0.042940,
2025-10-16T06:15:42.802521+00:00,10.620000,-0.040280,
2025-10-16T06:15:42.807521+00:00,10.625000,-0.031920,
2025-10-16T06:15:42.812521+00:00,10.630000,-0.033060,
2025-10-16T06:15:42.817521+00:00,10.635000,-0.041800,
2025-10-16T06:15:42.822521+00:00,10.640000,-0.046360,
2025-10-16T06:15:42.827521+00:00,10.645000,-0.030020,
2025-10-16T06:15:42.832521+00:00,10.650000,-0.014440,
2025-10-16T06:15:42.837521+00:00,10.655000,-0.016340,
2025-10-16T06:15:42.842521+00:00,10.660000,-0.032680,
2025-10-16T06:15:42.847521+00:00,10.665000,-0.044840,
2025-10-16T06:15:42.852521+00:00,10.670000,-0.046740,
2025-10-16T06:15:42.857521+00:00,10.675000,-0.041040,
2025-10-16T06:15:42.862521+00:00,10.680000,-0.031540,
2025-10-16T06:15:42.867521+00:00,10.685000,-0.021280,
2025-10-16T06:15:42.872521+00:00,10.690000,-0.021660,
2025-10-16T06:15:42.877521+00:00,10.695000,-0.031540,
2025-10-16T06:15:42.882521+00:00,10.700000,-0.038760,
2025-10-16T06:15:42.887521+00:00,10.705000,-0.033060,
2025-10-16T06:15:42.892521+00:00,10.710000,-0.023940,
2025-10-16T06:15:42.897521+00:00,10.715000,-0.026600,
2025-10-16T06:15:42.902521+00:00,10.720000,-0.041420,
2025-10-16T06:15:42.907521+00:00,10.725000,-0.052440,
2025-10-16T06:15:42.912521+00:00,10.730000,-0.049780,
2025-10-16T06:15:42.917521+00:00,10.735000,-0.043700,
2025-10-16T06:15:42.922521+00:00,10.740000,-0.042940,
2025-10-16T06:15:42.927521+00:00,10.745000,-0.039900,
2025-10-16T06:15:42.932521+00:00,10.750000,-0.026600,
2025-10-16T06:15:42.937521+00:00,10.755000,-0.023940,
2025-10-16T06:15:42.942521+00:00,10.760000,-0.049400,
2025-10-16T06:15:42.947521+00:00,10.765000,-0.082080,
2025-10-16T06:15:42.952521+00:00,10.770000,-0.088160,
2025-10-16T06:15:42.957521+00:00,10.775000,-0.068020,
2025-10-16T06:15:42.962521+00:00,10.780000,-0.047120,
2025-10-16T06:15:42.967521+00:00,10.785000,-0.041040,
2025-10-16T06:15:42.972521+00:00,10.790000,-0.041800,
2025-10-16T06:15:42.977521+00:00,10.795000,-0.037620,
2025-10-16T06:15:42.982521+00:00,10.800000,-0.039140,
2025-10-16T06:15:42.987521+00:00,10.805000,-0.051680,
2025-10-16T06:15:42.992521+00:00,10.810000,-0.055100,
2025-10-16T06:15:42.997521+00:00,10.815000,-0.041420,
2025-10-16T06:15:43.002521+00:00,10.820000,-0.030780,
2025-10-16T06:15:43.007521+00:00,10.825000,-0.037620,
2025-10-16T06:15:43.012521+00:00,10.830000,-0.046360,
2025-10-16T06:15:43.017521+00:00,10.835000,-0.046740,
2025-10-16T06:15:43.022521+00:00,10.840000,-0.036100,
2025-10-16T06:15:43.027521+00:00,10.845000,-0.023560,
2025-10-16T06:15:43.032521+00:00,10.850000,-0.019000,
2025-10-16T06:15:43.037521+00:00,10.855000,-0.026220,
2025-10-16T06:15:43.042521+00:00,10.860000,-0.032680,
2025-10-16T06:15:43.047521+00:00,10.865000,-0.031160,
2025-10-16T06:15:43.052521+00:00,10.870000,-0.025080,
2025-10-16T06:15:43.057521+00:00,10.875000,-0.023940,
2025-10-16T06:15:43.062521+00:00,10.880000,-0.029640,
2025-10-16T06:15:43.067521+00:00,10.885000,-0.036480,
2025-10-16T06:15:43.072521+00:00,10.890000,-0.036860,
2025-10-16T06:15:43.077521+00:00,10.895000,-0.025840,
2025-10-16T06:15:43.082521+00:00,10.900000,-0.017480,
2025-10-16T06:15:43.087521+00:00,10.905000,-0.019760,COUNT_START|trial=1
2025-10-16T06:15:43.092521+00:00,10.910000,-0.023180,
2025-10-16T06:15:43.097521+00:00,10.915000,-0.017860,
2025-10-16T06:15:43.102521+00:00,10.920000,-0.007600,
2025-10-16T06:15:43.107521+00:00,10.925000,-0.007600,
2025-10-16T06:15:43.112521+00:00,10.930000,-0.028500,
2025-10-16T06:15:43.117521+00:00,10.935000,-0.061940,
2025-10-16T06:15:43.122521+00:00,10.940000,-0.087780,
2025-10-16T06:15:43.127521+00:00,10.945000,-0.088160,
2025-10-16T06:15:43.132521+00:00,10.950000,-0.073340,
2025-10-16T06:15:43.137521+00:00,10.955000,-0.053580,
2025-10-16T06:15:43.142521+00:00,10.960000,-0.039900,
2025-10-16T06:15:43.147521+00:00,10.965000,-0.034960,
2025-10-16T06:15:43.152521+00:00,10.970000,-0.036480,
2025-10-16T06:15:43.157521+00:00,10.975000,-0.044460,
2025-10-16T06:15:43.162521+00:00,10.980000,-0.052820,
2025-10-16T06:15:43.167521+00:00,10.985000,-0.055860,
2025-10-16T06:15:43.172521+00:00,10.990000,-0.053960,
2025-10-16T06:15:43.177521+00:00,10.995000,-0.053960,
2025-10-16T06:15:43.182521+00:00,11.000000,-0.060040,
2025-10-16T06:15:43.187521+00:00,11.005000,-0.064980,
2025-10-16T06:15:43.192521+00:00,11.010000,-0.062320,
2025-10-16T06:15:43.197521+00:00,11.015000,-0.058520,
2025-10-16T06:15:43.202521+00:00,11.020000,-0.058140,
2025-10-16T06:15:43.207521+00:00,11.025000,-0.057000,
2025-10-16T06:15:43.212521+00:00,11.030000,-0.043320,
2025-10-16T06:15:43.217521+00:00,11.035000,-0.024320,
2025-10-16T06:15:43.222521+00:00,11.040000,-0.023180,
2025-10-16T06:15:43.227521+00:00,11.045000,-0.038760,
2025-10-16T06:15:43.232521+00:00,11.050000,-0.049780,
2025-10-16T06:15:43.237521+00:00,11.055000,-0.051680,
2025-10-16T06:15:43.242521+00:00,11.060000,-0.054340,
2025-10-16T06:15:43.247521+00:00,11.065000,-0.068780,
2025-10-16T06:15:43.252521+00:00,11.070000,-0.080940,
2025-10-16T06:15:43.257521+00:00,11.075000,-0.074480,
2025-10-16T06:15:43.262521+00:00,11.080000,-0.055480,
2025-10-16T06:15:43.267521+00:00,11.085000,-0.042180,
2025-10-16T06:15:43.272521+00:00,11.090000,-0.037240,
2025-10-16T06:15:43.277521+00:00,11.095000,-0.033440,
2025-10-16T06:15:43.282521+00:00,11.100000,-0.038000,
2025-10-16T06:15:43.287521+00:00,11.105000,-0.055100,
2025-10-16T06:15:43.292521+00:00,11.110000,-0.073720,
2025-10-16T06:15:43.297521+00:00,11.115000,-0.082460,
2025-10-16T06:15:43.302521+00:00,11.120000,-0.079800,
2025-10-16T06:15:43.307521+00:00,11.125000,-0.069920,
2025-10-16T06:15:43.312521+00:00,11.130000,-0.059660,
2025-10-16T06:15:43.317521+00:00,11.135000,-0.050540,
2025-10-16T06:15:43.322521+00:00,11.140000,-0.045220,
2025-10-16T06:15:43.327521+00:00,11.145000,-0.047880,
2025-10-16T06:15:43.332521+00:00,11.150000,-0.050160,
2025-10-16T06:15:43.337521+00:00,11.155000,-0.047120,
2025-10-16T06:15:43.342521+00:00,11.160000,-0.041040,
2025-10-16T06:15:43.347521+00:00,11.165000,-0.037240,
2025-10-16T06:15:43.352521+00:00,11.170000,-0.040280,
2025-10-16T06:15:43.357521+00:00,11.175000,-0.048640,
2025-10-16T06:15:43.362521+00:00,11.180000,-0.053200,
2025-10-16T06:15:43.367521+00:00,11.185000,-0.047120,
2025-10-16T06:15:43.372521+00:00,11.190000,-0.039900,
2025-10-16T06:15:43.377521+00:00,11.195000,-0.041800,
2025-10-16T06:15:43.382521+00:00,11.200000,-0.050540,
2025-10-16T06:15:43.387521+00:00,11.205000,-0.050540,
2025-10-16T06:15:43.392521+00:00,11.210000,-0.043700,
2025-10-16T06:15:43.397521+00:00,11.215000,-0.034200,
2025-10-16T06:15:43.402521+00:00,11.220000,-0.041420,
2025-10-16T06:15:43.407521+00:00,11.225000,-0.057760,
2025-10-16T06:15:43.412521+00:00,11.230000,-0.068400,
2025-10-16T06:15:43.417521+00:00,11.235000,-0.064600,
2025-10-16T06:15:43.422521+00:00,11.240000,-0.059660,
2025-10-16T06:15:43.427521+00:00,11.245000,-0.056620,
2025-10-16T06:15:43.432521+00:00,11.250000,-0.051300,
2025-10-16T06:15:43.437521+00:00,11.255000,-0.047120,
2025-10-16T06:15:43.442521+00:00,11.260000,-0.049020,
2025-10-16T06:15:43.447521+00:00,11.265000,-0.052820,
2025-10-16T06:15:43.452521+00:00,11.270000,-0.053200,
2025-10-16T06:15:43.457521+00:00,11.275000,-0.042940,
2025-10-16T06:15:43.462521+00:00,11.280000,-0.023940,
2025-10-16T06:15:43.467521+00:00,11.285000,-0.014060,
2025-10-16T06:15:43.472521+00:00,11.290000,-0.020900,
2025-10-16T06:15:43.477521+00:00,11.295000,-0.030780,
2025-10-16T06:15:43.482521+00:00,11.300000,-0.034960,
2025-10-16T06:15:43.487521+00:00,11.305000,-0.036100,
2025-10-16T06:15:43.492521+00:00,11.310000,-0.036480,
2025-10-16T06:15:43.497521+00:00,11.315000,-0.044080,
