timestamp_utc,t_rel_sec,ecg_mV,event
2025-10-15T15:45:09.968765+00:00,0.000000,0.000000,
2025-10-15T15:45:09.973765+00:00,0.005000,0.000000,
2025-10-15T15:45:09.978765+00:00,0.010000,-0.001140,
2025-10-15T15:45:09.983765+00:00,0.015000,0.000760,
2025-10-15T15:45:09.988765+00:00,0.020000,0.010640,
2025-10-15T15:45:09.993765+00:00,0.025000,-0.072200,
2025-10-15T15:45:09.998765+00:00,0.030000,0.042560,
2025-10-15T15:45:10.003765+00:00,0.035000,0.342000,
2025-10-15T15:45:10.008765+00:00,0.040000,-0.657780,
2025-10-15T15:45:10.013765+00:00,0.045000,-0.926440,
2025-10-15T15:45:10.018765+00:00,0.050000,2.372340,
2025-10-15T15:45:10.023765+00:00,0.055000,2.528520,
2025-10-15T15:45:10.028765+00:00,0.060000,-5.199920,
2025-10-15T15:45:10.033765+00:00,0.065000,-9.675940,
2025-10-15T15:45:10.038765+00:00,0.070000,1.954720,
2025-10-15T15:45:10.043765+00:00,0.075000,23.503000,
2025-10-15T15:45:10.048765+00:00,0.080000,34.257380,
2025-10-15T15:45:10.053765+00:00,0.085000,24.919260,
2025-10-15T15:45:10.058765+00:00,0.090000,8.446260,
2025-10-15T15:45:10.063765+00:00,0.095000,1.569020,
2025-10-15T15:45:10.068765+00:00,0.100000,3.528300,
2025-10-15T15:45:10.073765+00:00,0.105000,3.733500,
2025-10-15T15:45:10.078765+00:00,0.110000,1.413220,
2025-10-15T15:45:10.083765+00:00,0.115000,0.446500,
2025-10-15T15:45:10.088765+00:00,0.120000,0.150860,
2025-10-15T15:45:10.093765+00:00,0.125000,-0.313880,
2025-10-15T15:45:10.098765+00:00,0.130000,-0.639540,
2025-10-15T15:45:10.103765+00:00,0.135000,-0.853100,
2025-10-15T15:45:10.108765+00:00,0.140000,-1.007760,
2025-10-15T15:45:10.113765+00:00,0.145000,-1.113400,
2025-10-15T15:45:10.118765+00:00,0.150000,-1.182940,
2025-10-15T15:45:10.123765+00:00,0.155000,-1.226640,
2025-10-15T15:45:10.128765+00:00,0.160000,-1.254760,
2025-10-15T15:45:10.133765+00:00,0.165000,-1.269960,
2025-10-15T15:45:10.138765+00:00,0.170000,-1.274140,
2025-10-15T15:45:10.143765+00:00,0.175000,-1.269200,
2025-10-15T15:45:10.148765+00:00,0.180000,-1.257040,
2025-10-15T15:45:10.153765+00:00,0.185000,-1.243740,
2025-10-15T15:45:10.158765+00:00,0.190000,-1.230060,
2025-10-15T15:45:10.163765+00:00,0.195000,-1.219040,
2025-10-15T15:45:10.168765+00:00,0.200000,-1.201180,
2025-10-15T15:45:10.173765+00:00,0.205000,-1.173440,
2025-10-15T15:45:10.178765+00:00,0.210000,-1.149500,
2025-10-15T15:45:10.183765+00:00,0.215000,-1.154440,
2025-10-15T15:45:10.188765+00:00,0.220000,-1.169260,
2025-10-15T15:45:10.193765+00:00,0.225000,-1.132400,
2025-10-15T15:45:10.198765+00:00,0.230000,-0.997500,
2025-10-15T15:45:10.203765+00:00,0.235000,-0.763420,
2025-10-15T15:45:10.208765+00:00,0.240000,-0.497040,
2025-10-15T15:45:10.213765+00:00,0.245000,-0.343900,
2025-10-15T15:45:10.218765+00:00,0.250000,-0.457520,
2025-10-15T15:45:10.223765+00:00,0.255000,-0.828020,
2025-10-15T15:45:10.228765+00:00,0.260000,-1.234620,
2025-10-15T15:45:10.233765+00:00,0.265000,-1.431460,
2025-10-15T15:45:10.238765+00:00,0.270000,-1.380160,
2025-10-15T15:45:10.243765+00:00,0.275000,-1.235380,
2025-10-15T15:45:10.248765+00:00,0.280000,-1.138100,
2025-10-15T15:45:10.253765+00:00,0.285000,-1.092500,
2025-10-15T15:45:10.258765+00:00,0.290000,-1.048040,
2025-10-15T15:45:10.263765+00:00,0.295000,-0.999780,
2025-10-15T15:45:10.268765+00:00,0.300000,-0.959120,
2025-10-15T15:45:10.273765+00:00,0.305000,-0.924160,
2025-10-15T15:45:10.278765+00:00,0.310000,-0.893380,
2025-10-15T15:45:10.283765+00:00,0.315000,-0.866020,
2025-10-15T15:45:10.288765+00:00,0.320000,-0.842080,
2025-10-15T15:45:10.293765+00:00,0.325000,-0.819660,
2025-10-15T15:45:10.298765+00:00,0.330000,-0.800280,
2025-10-15T15:45:10.303765+00:00,0.335000,-0.784320,
2025-10-15T15:45:10.308765+00:00,0.340000,-0.769500,
2025-10-15T15:45:10.313765+00:00,0.345000,-0.755060,
2025-10-15T15:45:10.318765+00:00,0.350000,-0.742140,
2025-10-15T15:45:10.323765+00:00,0.355000,-0.728840,
2025-10-15T15:45:10.328765+00:00,0.360000,-0.716300,
2025-10-15T15:45:10.333765+00:00,0.365000,-0.704520,
2025-10-15T15:45:10.338765+00:00,0.370000,-0.693500,
2025-10-15T15:45:10.343765+00:00,0.375000,-0.682860,
2025-10-15T15:45:10.348765+00:00,0.380000,-0.670700,
2025-10-15T15:45:10.353765+00:00,0.385000,-0.655120,
2025-10-15T15:45:10.358765+00:00,0.390000,-0.636500,
2025-10-15T15:45:10.363765+00:00,0.395000,-0.619400,
2025-10-15T15:45:10.368765+00:00,0.400000,-0.605340,
2025-10-15T15:45:10.373765+00:00,0.405000,-0.598120,
2025-10-15T15:45:10.378765+00:00,0.410000,-0.590900,
2025-10-15T15:45:10.383765+00:00,0.415000,-0.580640,
2025-10-15T15:45:10.388765+00:00,0.420000,-0.568480,
2025-10-15T15:45:10.393765+00:00,0.425000,-0.558220,
2025-10-15T15:45:10.398765+00:00,0.430000,-0.550620,
2025-10-15T15:45:10.403765+00:00,0.435000,-0.544160,
2025-10-15T15:45:10.408765+00:00,0.440000,-0.535040,
2025-10-15T15:45:10.413765+00:00,0.445000,-0.522500,
2025-10-15T15:45:10.418765+00:00,0.450000,-0.508820,
2025-10-15T15:45:10.423765+00:00,0.455000,-0.498940,
2025-10-15T15:45:10.428765+00:00,0.460000,-0.492480,
2025-10-15T15:45:10.433765+00:00,0.465000,-0.489440,
2025-10-15T15:45:10.438765+00:00,0.470000,-0.488300,
2025-10-15T15:45:10.443765+00:00,0.475000,-0.487920,
2025-10-15T15:45:10.448765+00:00,0.480000,-0.486780,
2025-10-15T15:45:10.453765+00:00,0.485000,-0.485640,
2025-10-15T15:45:10.458765+00:00,0.490000,-0.483740,
2025-10-15T15:45:10.463765+00:00,0.495000,-0.483360,
2025-10-15T15:45:10.468765+00:00,0.500000,-0.485640,
2025-10-15T15:45:10.473765+00:00,0.505000,-0.492860,
2025-10-15T15:45:10.478765+00:00,0.510000,-0.503120,
2025-10-15T15:45:10.483765+00:00,0.515000,-0.516800,
2025-10-15T15:45:10.488765+00:00,0.520000,-0.533900,
2025-10-15T15:45:10.493765+00:00,0.525000,-0.552140,
2025-10-15T15:45:10.498765+00:00,0.530000,-0.562780,
2025-10-15T15:45:10.503765+00:00,0.535000,-0.564300,
2025-10-15T15:45:10.508765+00:00,0.540000,-0.558980,
2025-10-15T15:45:10.513765+00:00,0.545000,-0.547200,
2025-10-15T15:45:10.518765+00:00,0.550000,-0.533520,
2025-10-15T15:45:10.523765+00:00,0.555000,-0.517180,
2025-10-15T15:45:10.528765+00:00,0.560000,-0.497420,
2025-10-15T15:45:10.533765+00:00,0.565000,-0.478420,
2025-10-15T15:45:10.538765+00:00,0.570000,-0.459420,
2025-10-15T15:45:10.543765+00:00,0.575000,-0.440800,
2025-10-15T15:45:10.548765+00:00,0.580000,-0.422560,
2025-10-15T15:45:10.553765+00:00,0.585000,-0.406220,
2025-10-15T15:45:10.558765+00:00,0.590000,-0.392540,
2025-10-15T15:45:10.563765+00:00,0.595000,-0.380000,
2025-10-15T15:45:10.568765+00:00,0.600000,-0.369360,
2025-10-15T15:45:10.573765+00:00,0.605000,-0.359860,
2025-10-15T15:45:10.578765+00:00,0.610000,-0.353400,
2025-10-15T15:45:10.583765+00:00,0.615000,-0.346560,
2025-10-15T15:45:10.588765+00:00,0.620000,-0.342000,
2025-10-15T15:45:10.593765+00:00,0.625000,-0.336680,
2025-10-15T15:45:10.598765+00:00,0.630000,-0.330980,
2025-10-15T15:45:10.603765+00:00,0.635000,-0.324520,
2025-10-15T15:45:10.608765+00:00,0.640000,-0.318060,
2025-10-15T15:45:10.613765+00:00,0.645000,-0.312740,
2025-10-15T15:45:10.618765+00:00,0.650000,-0.308560,
2025-10-15T15:45:10.623765+00:00,0.655000,-0.305140,
2025-10-15T15:45:10.628765+00:00,0.660000,-0.303240,
2025-10-15T15:45:10.633765+00:00,0.665000,-0.301340,
2025-10-15T15:45:10.638765+00:00,0.670000,-0.300200,
2025-10-15T15:45:10.643765+00:00,0.675000,-0.297160,
2025-10-15T15:45:10.648765+00:00,0.680000,-0.291840,
2025-10-15T15:45:10.653765+00:00,0.685000,-0.288420,
2025-10-15T15:45:10.658765+00:00,0.690000,-0.285760,
2025-10-15T15:45:10.663765+00:00,0.695000,-0.282720,
2025-10-15T15:45:10.668765+00:00,0.700000,-0.278160,
2025-10-15T15:45:10.673765+00:00,0.705000,-0.272460,
2025-10-15T15:45:10.678765+00:00,0.710000,-0.268660,
2025-10-15T15:45:10.683765+00:00,0.715000,-0.264860,
2025-10-15T15:45:10.688765+00:00,0.720000,-0.263340,
2025-10-15T15:45:10.693765+00:00,0.725000,-0.259540,
2025-10-15T15:45:10.698765+00:00,0.730000,-0.255360,
2025-10-15T15:45:10.703765+00:00,0.735000,-0.250800,
2025-10-15T15:45:10.708765+00:00,0.740000,-0.247000,
2025-10-15T15:45:10.713765+00:00,0.745000,-0.243200,
2025-10-15T15:45:10.718765+00:00,0.750000,-0.239780,
2025-10-15T15:45:10.723765+00:00,0.755000,-0.235220,
2025-10-15T15:45:10.728765+00:00,0.760000,-0.231040,
2025-10-15T15:45:10.733765+00:00,0.765000,-0.226860,
2025-10-15T15:45:10.738765+00:00,0.770000,-0.225340,
2025-10-15T15:45:10.743765+00:00,0.775000,-0.227240,
2025-10-15T15:45:10.748765+00:00,0.780000,-0.226100,
2025-10-15T15:45:10.753765+00:00,0.785000,-0.220780,
2025-10-15T15:45:10.758765+00:00,0.790000,-0.215460,
2025-10-15T15:45:10.763765+00:00,0.795000,-0.210900,
2025-10-15T15:45:10.768765+00:00,0.800000,-0.207100,
2025-10-15T15:45:10.773765+00:00,0.805000,-0.205200,
2025-10-15T15:45:10.778765+00:00,0.810000,-0.204820,
2025-10-15T15:45:10.783765+00:00,0.815000,-0.207480,
2025-10-15T15:45:10.788765+00:00,0.820000,-0.210520,
2025-10-15T15:45:10.793765+00:00,0.825000,-0.207480,
2025-10-15T15:45:10.798765+00:00,0.830000,-0.201020,
2025-10-15T15:45:10.803765+00:00,0.835000,-0.193040,
2025-10-15T15:45:10.808765+00:00,0.840000,-0.186580,
2025-10-15T15:45:10.813765+00:00,0.845000,-0.178980,
2025-10-15T15:45:10.818765+00:00,0.850000,-0.171760,
2025-10-15T15:45:10.823765+00:00,0.855000,-0.173280,
2025-10-15T15:45:10.828765+00:00,0.860000,-0.180500,
2025-10-15T15:45:10.833765+00:00,0.865000,-0.182780,
2025-10-15T15:45:10.838765+00:00,0.870000,-0.174040,
2025-10-15T15:45:10.843765+00:00,0.875000,-0.162260,
2025-10-15T15:45:10.848765+00:00,0.880000,-0.158840,
2025-10-15T15:45:10.853765+00:00,0.885000,-0.164540,
2025-10-15T15:45:10.858765+00:00,0.890000,-0.167960,
2025-10-15T15:45:10.863765+00:00,0.895000,-0.169100,
2025-10-15T15:45:10.868765+00:00,0.900000,-0.167960,
2025-10-15T15:45:10.873765+00:00,0.905000,-0.166820,
2025-10-15T15:45:10.878765+00:00,0.910000,-0.163020,
2025-10-15T15:45:10.883765+00:00,0.915000,-0.158840,
2025-10-15T15:45:10.888765+00:00,0.920000,-0.155040,
2025-10-15T15:45:10.893765+00:00,0.925000,-0.153900,
2025-10-15T15:45:10.898765+00:00,0.930000,-0.154660,
2025-10-15T15:45:10.903765+00:00,0.935000,-0.153520,
2025-10-15T15:45:10.908765+00:00,0.940000,-0.141360,
2025-10-15T15:45:10.913765+00:00,0.945000,-0.125020,
2025-10-15T15:45:10.918765+00:00,0.950000,-0.125020,
2025-10-15T15:45:10.923765+00:00,0.955000,-0.158080,
2025-10-15T15:45:10.928765+00:00,0.960000,-0.185440,
2025-10-15T15:45:10.933765+00:00,0.965000,-0.142880,
2025-10-15T15:45:10.938765+00:00,0.970000,0.011020,
2025-10-15T15:45:10.943765+00:00,0.975000,0.257640,
2025-10-15T15:45:10.948765+00:00,0.980000,0.499320,
2025-10-15T15:45:10.953765+00:00,0.985000,0.566960,
2025-10-15T15:45:10.958765+00:00,0.990000,0.342000,
2025-10-15T15:45:10.963765+00:00,0.995000,-0.091580,
2025-10-15T15:45:10.968765+00:00,1.000000,-0.471200,
2025-10-15T15:45:10.973765+00:00,1.005000,-0.599260,
2025-10-15T15:45:10.978765+00:00,1.010000,-0.512240,
2025-10-15T15:45:10.983765+00:00,1.015000,-0.385320,
2025-10-15T15:45:10.988765+00:00,1.020000,-0.322240,
2025-10-15T15:45:10.993765+00:00,1.025000,-0.296020,
2025-10-15T15:45:10.998765+00:00,1.030000,-0.262200,
2025-10-15T15:45:11.003765+00:00,1.035000,-0.225340,
2025-10-15T15:45:11.008765+00:00,1.040000,-0.198740,
2025-10-15T15:45:11.013765+00:00,1.045000,-0.175940,
2025-10-15T15:45:11.018765+00:00,1.050000,-0.156180,
2025-10-15T15:45:11.023765+00:00,1.055000,-0.141740,
2025-10-15T15:45:11.028765+00:00,1.060000,-0.131860,
2025-10-15T15:45:11.033765+00:00,1.065000,-0.124260,
2025-10-15T15:45:11.038765+00:00,1.070000,-0.116660,
2025-10-15T15:45:11.043765+00:00,1.075000,-0.110960,
2025-10-15T15:45:11.048765+00:00,1.080000,-0.106020,
2025-10-15T15:45:11.053765+00:00,1.085000,-0.102600,
2025-10-15T15:45:11.058765+00:00,1.090000,-0.098420,
2025-10-15T15:45:11.063765+00:00,1.095000,-0.095760,
2025-10-15T15:45:11.068765+00:00,1.100000,-0.093860,
2025-10-15T15:45:11.073765+00:00,1.105000,-0.091580,
2025-10-15T15:45:11.078765+00:00,1.110000,-0.088160,
2025-10-15T15:45:11.083765+00:00,1.115000,-0.084740,
2025-10-15T15:45:11.088765+00:00,1.120000,-0.080940,
2025-10-15T15:45:11.093765+00:00,1.125000,-0.077520,
2025-10-15T15:45:11.098765+00:00,1.130000,-0.072200,
2025-10-15T15:45:11.103765+00:00,1.135000,-0.071060,
2025-10-15T15:45:11.108765+00:00,1.140000,-0.071060,
2025-10-15T15:45:11.113765+00:00,1.145000,-0.071440,
2025-10-15T15:45:11.118765+00:00,1.150000,-0.069160,
2025-10-15T15:45:11.123765+00:00,1.155000,-0.062320,
2025-10-15T15:45:11.128765+00:00,1.160000,-0.053580,
2025-10-15T15:45:11.133765+00:00,1.165000,-0.047500,
2025-10-15T15:45:11.138765+00:00,1.170000,-0.044080,
2025-10-15T15:45:11.143765+00:00,1.175000,-0.043700,
2025-10-15T15:45:11.148765+00:00,1.180000,-0.040280,
2025-10-15T15:45:11.153765+00:00,1.185000,-0.036100,
2025-10-15T15:45:11.158765+00:00,1.190000,-0.029260,
2025-10-15T15:45:11.163765+00:00,1.195000,-0.026220,
2025-10-15T15:45:11.168765+00:00,1.200000,-0.027360,
2025-10-15T15:45:11.173765+00:00,1.205000,-0.030780,
2025-10-15T15:45:11.178765+00:00,1.210000,-0.037240,
2025-10-15T15:45:11.183765+00:00,1.215000,-0.046740,
2025-10-15T15:45:11.188765+00:00,1.220000,-0.055860,
2025-10-15T15:45:11.193765+00:00,1.225000,-0.063460,
2025-10-15T15:45:11.198765+00:00,1.230000,-0.067640,
2025-10-15T15:45:11.203765+00:00,1.235000,-0.071440,
2025-10-15T15:45:11.208765+00:00,1.240000,-0.080180,
2025-10-15T15:45:11.213765+00:00,1.245000,-0.097280,
2025-10-15T15:45:11.218765+00:00,1.250000,-0.122360,
2025-10-15T15:45:11.223765+00:00,1.255000,-0.155040,
2025-10-15T15:45:11.228765+00:00,1.260000,-0.184300,
2025-10-15T15:45:11.233765+00:00,1.265000,-0.205200,
2025-10-15T15:45:11.238765+00:00,1.270000,-0.213940,
2025-10-15T15:45:11.243765+00:00,1.275000,-0.213180,
2025-10-15T15:45:11.248765+00:00,1.280000,-0.204060,
2025-10-15T15:45:11.253765+00:00,1.285000,-0.192280,
2025-10-15T15:45:11.258765+00:00,1.290000,-0.178980,
2025-10-15T15:45:11.263765+00:00,1.295000,-0.166820,
2025-10-15T15:45:11.268765+00:00,1.300000,-0.156940,
2025-10-15T15:45:11.273765+00:00,1.305000,-0.143260,
2025-10-15T15:45:11.278765+00:00,1.310000,-0.128820,
2025-10-15T15:45:11.283765+00:00,1.315000,-0.112860,
2025-10-15T15:45:11.288765+00:00,1.320000,-0.102600,
2025-10-15T15:45:11.293765+00:00,1.325000,-0.095760,
2025-10-15T15:45:11.298765+00:00,1.330000,-0.088920,
2025-10-15T15:45:11.303765+00:00,1.335000,-0.083980,
2025-10-15T15:45:11.308765+00:00,1.340000,-0.078660,
2025-10-15T15:45:11.313765+00:00,1.345000,-0.072580,
2025-10-15T15:45:11.318765+00:00,1.350000,-0.064600,
2025-10-15T15:45:11.323765+00:00,1.355000,-0.058520,
2025-10-15T15:45:11.328765+00:00,1.360000,-0.056240,
2025-10-15T15:45:11.333765+00:00,1.365000,-0.058520,
2025-10-15T15:45:11.338765+00:00,1.370000,-0.061560,
2025-10-15T15:45:11.343765+00:00,1.375000,-0.063080,
2025-10-15T15:45:11.348765+00:00,1.380000,-0.061560,
2025-10-15T15:45:11.353765+00:00,1.385000,-0.059660,
2025-10-15T15:45:11.358765+00:00,1.390000,-0.057000,
2025-10-15T15:45:11.363765+00:00,1.395000,-0.055100,
2025-10-15T15:45:11.368765+00:00,1.400000,-0.055860,
2025-10-15T15:45:11.373765+00:00,1.405000,-0.060420,
2025-10-15T15:45:11.378765+00:00,1.410000,-0.063840,
2025-10-15T15:45:11.383765+00:00,1.415000,-0.065360,
2025-10-15T15:45:11.388765+00:00,1.420000,-0.064600,
2025-10-15T15:45:11.393765+00:00,1.425000,-0.066880,
2025-10-15T15:45:11.398765+00:00,1.430000,-0.068400,
2025-10-15T15:45:11.403765+00:00,1.435000,-0.066120,
2025-10-15T15:45:11.408765+00:00,1.440000,-0.061560,
2025-10-15T15:45:11.413765+00:00,1.445000,-0.061180,
2025-10-15T15:45:11.418765+00:00,1.450000,-0.064600,
2025-10-15T15:45:11.423765+00:00,1.455000,-0.065360,
2025-10-15T15:45:11.428765+00:00,1.460000,-0.060800,
2025-10-15T15:45:11.433765+00:00,1.465000,-0.054720,
2025-10-15T15:45:11.438765+00:00,1.470000,-0.052440,
2025-10-15T15:45:11.443765+00:00,1.475000,-0.055860,
2025-10-15T15:45:11.448765+00:00,1.480000,-0.060420,
2025-10-15T15:45:11.453765+00:00,1.485000,-0.060420,
2025-10-15T15:45:11.458765+00:00,1.490000,-0.054720,
2025-10-15T15:45:11.463765+00:00,1.495000,-0.048260,
2025-10-15T15:45:11.468765+00:00,1.500000,-0.048640,
2025-10-15T15:45:11.473765+00:00,1.505000,-0.053200,
2025-10-15T15:45:11.478765+00:00,1.510000,-0.055480,
2025-10-15T15:45:11.483765+00:00,1.515000,-0.054340,
2025-10-15T15:45:11.488765+00:00,1.520000,-0.053580,
2025-10-15T15:45:11.493765+00:00,1.525000,-0.053200,
2025-10-15T15:45:11.498765+00:00,1.530000,-0.052820,
2025-10-15T15:45:11.503765+00:00,1.535000,-0.049400,
2025-10-15T15:45:11.508765+00:00,1.540000,-0.045600,
2025-10-15T15:45:11.513765+00:00,1.545000,-0.045980,
2025-10-15T15:45:11.518765+00:00,1.550000,-0.053580,
2025-10-15T15:45:11.523765+00:00,1.555000,-0.061940,
2025-10-15T15:45:11.528765+00:00,1.560000,-0.065740,
2025-10-15T15:45:11.533765+00:00,1.565000,-0.061940,
2025-10-15T15:45:11.538765+00:00,1.570000,-0.055100,
2025-10-15T15:45:11.543765+00:00,1.575000,-0.049400,
2025-10-15T15:45:11.548765+00:00,1.580000,-0.044840,
2025-10-15T15:45:11.553765+00:00,1.585000,-0.042940,
2025-10-15T15:45:11.558765+00:00,1.590000,-0.044460,
2025-10-15T15:45:11.563765+00:00,1.595000,-0.044840,
2025-10-15T15:45:11.568765+00:00,1.600000,-0.040660,
2025-10-15T15:45:11.573765+00:00,1.605000,-0.029640,
2025-10-15T15:45:11.578765+00:00,1.610000,-0.023940,
2025-10-15T15:45:11.583765+00:00,1.615000,-0.026600,
2025-10-15T15:45:11.588765+00:00,1.620000,-0.034960,
2025-10-15T15:45:11.593765+00:00,1.625000,-0.042940,
2025-10-15T15:45:11.598765+00:00,1.630000,-0.048260,
2025-10-15T15:45:11.603765+00:00,1.635000,-0.052060,
2025-10-15T15:45:11.608765+00:00,1.640000,-0.054340,
2025-10-15T15:45:11.613765+00:00,1.645000,-0.053960,
2025-10-15T15:45:11.618765+00:00,1.650000,-0.050920,
2025-10-15T15:45:11.623765+00:00,1.655000,-0.045220,
2025-10-15T15:45:11.628765+00:00,1.660000,-0.043320,
2025-10-15T15:45:11.633765+00:00,1.665000,-0.045600,
2025-10-15T15:45:11.638765+00:00,1.670000,-0.050160,
2025-10-15T15:45:11.643765+00:00,1.675000,-0.044080,
2025-10-15T15:45:11.648765+00:00,1.680000,-0.028880,
2025-10-15T15:45:11.653765+00:00,1.685000,-0.029640,
2025-10-15T15:45:11.658765+00:00,1.690000,-0.055860,
2025-10-15T15:45:11.663765+00:00,1.695000,-0.077520,
2025-10-15T15:45:11.668765+00:00,1.700000,-0.031540,
2025-10-15T15:45:11.673765+00:00,1.705000,0.119320,
2025-10-15T15:45:11.678765+00:00,1.710000,0.353400,
2025-10-15T15:45:11.683765+00:00,1.715000,0.561260,
2025-10-15T15:45:11.688765+00:00,1.720000,0.576840,
2025-10-15T15:45:11.693765+00:00,1.725000,0.312360,
2025-10-15T15:45:11.698765+00:00,1.730000,-0.102980,
2025-10-15T15:45:11.703765+00:00,1.735000,-0.415720,
2025-10-15T15:45:11.708765+00:00,1.740000,-0.476520,
2025-10-15T15:45:11.713765+00:00,1.745000,-0.365560,
2025-10-15T15:45:11.718765+00:00,1.750000,-0.249660,
2025-10-15T15:45:11.723765+00:00,1.755000,-0.201400,
2025-10-15T15:45:11.728765+00:00,1.760000,-0.181260,
2025-10-15T15:45:11.733765+00:00,1.765000,-0.153140,
2025-10-15T15:45:11.738765+00:00,1.770000,-0.123880,
2025-10-15T15:45:11.743765+00:00,1.775000,-0.103740,
2025-10-15T15:45:11.748765+00:00,1.780000,-0.085880,
2025-10-15T15:45:11.753765+00:00,1.785000,-0.071060,
2025-10-15T15:45:11.758765+00:00,1.790000,-0.059660,
2025-10-15T15:45:11.763765+00:00,1.795000,-0.050920,
2025-10-15T15:45:11.768765+00:00,1.800000,-0.043320,
2025-10-15T15:45:11.773765+00:00,1.805000,-0.036860,
2025-10-15T15:45:11.778765+00:00,1.810000,-0.033820,
2025-10-15T15:45:11.783765+00:00,1.815000,-0.033440,
2025-10-15T15:45:11.788765+00:00,1.820000,-0.034200,
2025-10-15T15:45:11.793765+00:00,1.825000,-0.031540,
2025-10-15T15:45:11.798765+00:00,1.830000,-0.026220,
2025-10-15T15:45:11.803765+00:00,1.835000,-0.020140,
2025-10-15T15:45:11.808765+00:00,1.840000,-0.018620,
2025-10-15T15:45:11.813765+00:00,1.845000,-0.020140,
2025-10-15T15:45:11.818765+00:00,1.850000,-0.023940,
2025-10-15T15:45:11.823765+00:00,1.855000,-0.022040,
2025-10-15T15:45:11.828765+00:00,1.860000,-0.019760,
2025-10-15T15:45:11.833765+00:00,1.865000,-0.017860,
2025-10-15T15:45:11.838765+00:00,1.870000,-0.019000,
2025-10-15T15:45:11.843765+00:00,1.875000,-0.019000,
2025-10-15T15:45:11.848765+00:00,1.880000,-0.018620,
2025-10-15T15:45:11.853765+00:00,1.885000,-0.013300,
2025-10-15T15:45:11.858765+00:00,1.890000,-0.008360,
2025-10-15T15:45:11.863765+00:00,1.895000,-0.005700,
2025-10-15T15:45:11.868765+00:00,1.900000,-0.005320,
2025-10-15T15:45:11.873765+00:00,1.905000,-0.000760,
2025-10-15T15:45:11.878765+00:00,1.910000,0.006080,
2025-10-15T15:45:11.883765+00:00,1.915000,0.013300,
2025-10-15T15:45:11.888765+00:00,1.920000,0.016720,
2025-10-15T15:45:11.893765+00:00,1.925000,0.015960,
2025-10-15T15:45:11.898765+00:00,1.930000,0.013300,
2025-10-15T15:45:11.903765+00:00,1.935000,0.011780,
2025-10-15T15:45:11.908765+00:00,1.940000,0.008740,
2025-10-15T15:45:11.913765+00:00,1.945000,0.004560,
2025-10-15T15:45:11.918765+00:00,1.950000,-0.003420,
2025-10-15T15:45:11.923765+00:00,1.955000,-0.011020,
2025-10-15T15:45:11.928765+00:00,1.960000,-0.017100,
2025-10-15T15:45:11.933765+00:00,1.965000,-0.022040,
2025-10-15T15:45:11.938765+00:00,1.970000,-0.028500,
2025-10-15T15:45:11.943765+00:00,1.975000,-0.039900,
2025-10-15T15:45:11.948765+00:00,1.980000,-0.059660,
2025-10-15T15:45:11.953765+00:00,1.985000,-0.083980,
2025-10-15T15:45:11.958765+00:00,1.990000,-0.111340,
2025-10-15T15:45:11.963765+00:00,1.995000,-0.136420,
2025-10-15T15:45:11.968765+00:00,2.000000,-0.154280,
2025-10-15T15:45:11.973765+00:00,2.005000,-0.164920,
2025-10-15T15:45:11.978765+00:00,2.010000,-0.167580,
2025-10-15T15:45:11.983765+00:00,2.015000,-0.167200,
2025-10-15T15:45:11.988765+00:00,2.020000,-0.163780,
2025-10-15T15:45:11.993765+00:00,2.025000,-0.157700,
2025-10-15T15:45:11.998765+00:00,2.030000,-0.144400,
2025-10-15T15:45:12.003765+00:00,2.035000,-0.128060,
2025-10-15T15:45:12.008765+00:00,2.040000,-0.111340,
2025-10-15T15:45:12.013765+00:00,2.045000,-0.095760,
2025-10-15T15:45:12.018765+00:00,2.050000,-0.083220,
2025-10-15T15:45:12.023765+00:00,2.055000,-0.072960,
2025-10-15T15:45:12.028765+00:00,2.060000,-0.061560,
2025-10-15T15:45:12.033765+00:00,2.065000,-0.052440,
2025-10-15T15:45:12.038765+00:00,2.070000,-0.044840,
2025-10-15T15:45:12.043765+00:00,2.075000,-0.042560,
2025-10-15T15:45:12.048765+00:00,2.080000,-0.041040,
2025-10-15T15:45:12.053765+00:00,2.085000,-0.040660,
2025-10-15T15:45:12.058765+00:00,2.090000,-0.037240,
2025-10-15T15:45:12.063765+00:00,2.095000,-0.034200,
2025-10-15T15:45:12.068765+00:00,2.100000,-0.030400,
2025-10-15T15:45:12.073765+00:00,2.105000,-0.027740,
2025-10-15T15:45:12.078765+00:00,2.110000,-0.025080,
2025-10-15T15:45:12.083765+00:00,2.115000,-0.025080,
2025-10-15T15:45:12.088765+00:00,2.120000,-0.027740,
2025-10-15T15:45:12.093765+00:00,2.125000,-0.033440,
2025-10-15T15:45:12.098765+00:00,2.130000,-0.037240,
2025-10-15T15:45:12.103765+00:00,2.135000,-0.039140,
2025-10-15T15:45:12.108765+00:00,2.140000,-0.038380,
2025-10-15T15:45:12.113765+00:00,2.145000,-0.038000,
2025-10-15T15:45:12.118765+00:00,2.150000,-0.036860,
2025-10-15T15:45:12.123765+00:00,2.155000,-0.037240,
2025-10-15T15:45:12.128765+00:00,2.160000,-0.037240,
2025-10-15T15:45:12.133765+00:00,2.165000,-0.037620,
2025-10-15T15:45:12.138765+00:00,2.170000,-0.038380,
2025-10-15T15:45:12.143765+00:00,2.175000,-0.039900,
2025-10-15T15:45:12.148765+00:00,2.180000,-0.039520,
2025-10-15T15:45:12.153765+00:00,2.185000,-0.038380,
2025-10-15T15:45:12.158765+00:00,2.190000,-0.037240,
2025-10-15T15:45:12.163765+00:00,2.195000,-0.036480,
2025-10-15T15:45:12.168765+00:00,2.200000,-0.037240,
2025-10-15T15:45:12.173765+00:00,2.205000,-0.036480,
2025-10-15T15:45:12.178765+00:00,2.210000,-0.036480,
2025-10-15T15:45:12.183765+00:00,2.215000,-0.035720,
2025-10-15T15:45:12.188765+00:00,2.220000,-0.036860,
2025-10-15T15:45:12.193765+00:00,2.225000,-0.038380,
2025-10-15T15:45:12.198765+00:00,2.230000,-0.040280,
2025-10-15T15:45:12.203765+00:00,2.235000,-0.041420,
2025-10-15T15:45:12.208765+00:00,2.240000,-0.038760,
2025-10-15T15:45:12.213765+00:00,2.245000,-0.034200,
2025-10-15T15:45:12.218765+00:00,2.250000,-0.032300,
2025-10-15T15:45:12.223765+00:00,2.255000,-0.033820,
2025-10-15T15:45:12.228765+00:00,2.260000,-0.035720,
2025-10-15T15:45:12.233765+00:00,2.265000,-0.036100,
2025-10-15T15:45:12.238765+00:00,2.270000,-0.034200,
2025-10-15T15:45:12.243765+00:00,2.275000,-0.033440,
2025-10-15T15:45:12.248765+00:00,2.280000,-0.033060,
2025-10-15T15:45:12.253765+00:00,2.285000,-0.033060,
2025-10-15T15:45:12.258765+00:00,2.290000,-0.034200,
2025-10-15T15:45:12.263765+00:00,2.295000,-0.037620,
2025-10-15T15:45:12.268765+00:00,2.300000,-0.043320,
2025-10-15T15:45:12.273765+00:00,2.305000,-0.047120,
2025-10-15T15:45:12.278765+00:00,2.310000,-0.045220,
2025-10-15T15:45:12.283765+00:00,2.315000,-0.040660,
2025-10-15T15:45:12.288765+00:00,2.320000,-0.037240,
2025-10-15T15:45:12.293765+00:00,2.325000,-0.032680,
2025-10-15T15:45:12.298765+00:00,2.330000,-0.026600,
2025-10-15T15:45:12.303765+00:00,2.335000,-0.023180,
2025-10-15T15:45:12.308765+00:00,2.340000,-0.025080,
2025-10-15T15:45:12.313765+00:00,2.345000,-0.031160,
2025-10-15T15:45:12.318765+00:00,2.350000,-0.033060,
2025-10-15T15:45:12.323765+00:00,2.355000,-0.028500,
2025-10-15T15:45:12.328765+00:00,2.360000,-0.022800,
2025-10-15T15:45:12.333765+00:00,2.365000,-0.024700,
2025-10-15T15:45:12.338765+00:00,2.370000,-0.030400,
2025-10-15T15:45:12.343765+00:00,2.375000,-0.035720,
2025-10-15T15:45:12.348765+00:00,2.380000,-0.037620,
2025-10-15T15:45:12.353765+00:00,2.385000,-0.036100,
2025-10-15T15:45:12.358765+00:00,2.390000,-0.036100,
2025-10-15T15:45:12.363765+00:00,2.395000,-0.034960,
2025-10-15T15:45:12.368765+00:00,2.400000,-0.032680,
2025-10-15T15:45:12.373765+00:00,2.405000,-0.030400,
2025-10-15T15:45:12.378765+00:00,2.410000,-0.028880,
2025-10-15T15:45:12.383765+00:00,2.415000,-0.031160,
2025-10-15T15:45:12.388765+00:00,2.420000,-0.034200,
2025-10-15T15:45:12.393765+00:00,2.425000,-0.023940,
2025-10-15T15:45:12.398765+00:00,2.430000,-0.011780,
2025-10-15T15:45:12.403765+00:00,2.435000,-0.022420,
2025-10-15T15:45:12.408765+00:00,2.440000,-0.059660,
2025-10-15T15:45:12.413765+00:00,2.445000,-0.073720,
2025-10-15T15:45:12.418765+00:00,2.450000,-0.001520,
2025-10-15T15:45:12.423765+00:00,2.455000,0.175180,
2025-10-15T15:45:12.428765+00:00,2.460000,0.413440,
2025-10-15T15:45:12.433765+00:00,2.465000,0.592420,
2025-10-15T15:45:12.438765+00:00,2.470000,0.557080,
2025-10-15T15:45:12.443765+00:00,2.475000,0.257260,
2025-10-15T15:45:12.448765+00:00,2.480000,-0.153520,
2025-10-15T15:45:12.453765+00:00,2.485000,-0.428260,
2025-10-15T15:45:12.458765+00:00,2.490000,-0.456380,
2025-10-15T15:45:12.463765+00:00,2.495000,-0.338200,
2025-10-15T15:45:12.468765+00:00,2.500000,-0.236360,
2025-10-15T15:45:12.473765+00:00,2.505000,-0.198360,
2025-10-15T15:45:12.478765+00:00,2.510000,-0.177080,
2025-10-15T15:45:12.483765+00:00,2.515000,-0.147440,
2025-10-15T15:45:12.488765+00:00,2.520000,-0.119320,
2025-10-15T15:45:12.493765+00:00,2.525000,-0.098420,
2025-10-15T15:45:12.498765+00:00,2.530000,-0.080940,
2025-10-15T15:45:12.503765+00:00,2.535000,-0.065360,
2025-10-15T15:45:12.508765+00:00,2.540000,-0.054340,
2025-10-15T15:45:12.513765+00:00,2.545000,-0.045600,
2025-10-15T15:45:12.518765+00:00,2.550000,-0.038380,
2025-10-15T15:45:12.523765+00:00,2.555000,-0.033820,
2025-10-15T15:45:12.528765+00:00,2.560000,-0.031160,
2025-10-15T15:45:12.533765+00:00,2.565000,-0.030780,
2025-10-15T15:45:12.538765+00:00,2.570000,-0.028880,
2025-10-15T15:45:12.543765+00:00,2.575000,-0.025080,
2025-10-15T15:45:12.548765+00:00,2.580000,-0.022420,
2025-10-15T15:45:12.553765+00:00,2.585000,-0.022040,
2025-10-15T15:45:12.558765+00:00,2.590000,-0.022420,
2025-10-15T15:45:12.563765+00:00,2.595000,-0.022800,
2025-10-15T15:45:12.568765+00:00,2.600000,-0.022420,
2025-10-15T15:45:12.573765+00:00,2.605000,-0.021280,
2025-10-15T15:45:12.578765+00:00,2.610000,-0.018240,
2025-10-15T15:45:12.583765+00:00,2.615000,-0.014060,
2025-10-15T15:45:12.588765+00:00,2.620000,-0.010640,
2025-10-15T15:45:12.593765+00:00,2.625000,-0.008360,
2025-10-15T15:45:12.598765+00:00,2.630000,-0.006840,
2025-10-15T15:45:12.603765+00:00,2.635000,-0.006080,
2025-10-15T15:45:12.608765+00:00,2.640000,-0.002660,
2025-10-15T15:45:12.613765+00:00,2.645000,0.001140,
2025-10-15T15:45:12.618765+00:00,2.650000,0.004940,
2025-10-15T15:45:12.623765+00:00,2.655000,0.007600,
2025-10-15T15:45:12.628765+00:00,2.660000,0.011020,
2025-10-15T15:45:12.633765+00:00,2.665000,0.015580,
2025-10-15T15:45:12.638765+00:00,2.670000,0.018620,
2025-10-15T15:45:12.643765+00:00,2.675000,0.019000,
2025-10-15T15:45:12.648765+00:00,2.680000,0.018620,
2025-10-15T15:45:12.653765+00:00,2.685000,0.015960,
2025-10-15T15:45:12.658765+00:00,2.690000,0.012540,
2025-10-15T15:45:12.663765+00:00,2.695000,0.006460,
2025-10-15T15:45:12.668765+00:00,2.700000,0.000000,
2025-10-15T15:45:12.673765+00:00,2.705000,-0.006840,
2025-10-15T15:45:12.678765+00:00,2.710000,-0.014060,
2025-10-15T15:45:12.683765+00:00,2.715000,-0.019760,
2025-10-15T15:45:12.688765+00:00,2.720000,-0.028120,
2025-10-15T15:45:12.693765+00:00,2.725000,-0.042180,
2025-10-15T15:45:12.698765+00:00,2.730000,-0.061940,
2025-10-15T15:45:12.703765+00:00,2.735000,-0.083980,
2025-10-15T15:45:12.708765+00:00,2.740000,-0.106780,
2025-10-15T15:45:12.713765+00:00,2.745000,-0.128060,
2025-10-15T15:45:12.718765+00:00,2.750000,-0.144780,
2025-10-15T15:45:12.723765+00:00,2.755000,-0.157320,
2025-10-15T15:45:12.728765+00:00,2.760000,-0.162260,
2025-10-15T15:45:12.733765+00:00,2.765000,-0.160740,
2025-10-15T15:45:12.738765+00:00,2.770000,-0.153900,
2025-10-15T15:45:12.743765+00:00,2.775000,-0.143260,
2025-10-15T15:45:12.748765+00:00,2.780000,-0.129960,
2025-10-15T15:45:12.753765+00:00,2.785000,-0.115520,
2025-10-15T15:45:12.758765+00:00,2.790000,-0.100700,
2025-10-15T15:45:12.763765+00:00,2.795000,-0.086640,
2025-10-15T15:45:12.768765+00:00,2.800000,-0.072960,
2025-10-15T15:45:12.773765+00:00,2.805000,-0.063080,
2025-10-15T15:45:12.778765+00:00,2.810000,-0.056240,
2025-10-15T15:45:12.783765+00:00,2.815000,-0.050160,
2025-10-15T15:45:12.788765+00:00,2.820000,-0.043320,
2025-10-15T15:45:12.793765+00:00,2.825000,-0.037620,
2025-10-15T15:45:12.798765+00:00,2.830000,-0.034200,
2025-10-15T15:45:12.803765+00:00,2.835000,-0.033820,
2025-10-15T15:45:12.808765+00:00,2.840000,-0.032680,
2025-10-15T15:45:12.813765+00:00,2.845000,-0.030780,
2025-10-15T15:45:12.818765+00:00,2.850000,-0.027360,
2025-10-15T15:45:12.823765+00:00,2.855000,-0.025840,
2025-10-15T15:45:12.828765+00:00,2.860000,-0.026220,
2025-10-15T15:45:12.833765+00:00,2.865000,-0.030400,
2025-10-15T15:45:12.838765+00:00,2.870000,-0.034580,
2025-10-15T15:45:12.843765+00:00,2.875000,-0.038000,
2025-10-15T15:45:12.848765+00:00,2.880000,-0.038380,
2025-10-15T15:45:12.853765+00:00,2.885000,-0.039900,
2025-10-15T15:45:12.858765+00:00,2.890000,-0.041040,
2025-10-15T15:45:12.863765+00:00,2.895000,-0.042560,
2025-10-15T15:45:12.868765+00:00,2.900000,-0.040660,
2025-10-15T15:45:12.873765+00:00,2.905000,-0.036100,
2025-10-15T15:45:12.878765+00:00,2.910000,-0.028880,
2025-10-15T15:45:12.883765+00:00,2.915000,-0.026220,
2025-10-15T15:45:12.888765+00:00,2.920000,-0.025840,
2025-10-15T15:45:12.893765+00:00,2.925000,-0.028880,
2025-10-15T15:45:12.898765+00:00,2.930000,-0.031920,
2025-10-15T15:45:12.903765+00:00,2.935000,-0.033060,
2025-10-15T15:45:12.908765+00:00,2.940000,-0.033060,
2025-10-15T15:45:12.913765+00:00,2.945000,-0.036100,
2025-10-15T15:45:12.918765+00:00,2.950000,-0.038000,
2025-10-15T15:45:12.923765+00:00,2.955000,-0.040660,
2025-10-15T15:45:12.928765+00:00,2.960000,-0.041040,
2025-10-15T15:45:12.933765+00:00,2.965000,-0.039140,
2025-10-15T15:45:12.938765+00:00,2.970000,-0.037620,
2025-10-15T15:45:12.943765+00:00,2.975000,-0.036100,
2025-10-15T15:45:12.948765+00:00,2.980000,-0.035340,
2025-10-15T15:45:12.953765+00:00,2.985000,-0.034200,
2025-10-15T15:45:12.958765+00:00,2.990000,-0.033440,
2025-10-15T15:45:12.963765+00:00,2.995000,-0.033440,
2025-10-15T15:45:12.968765+00:00,3.000000,-0.034200,
2025-10-15T15:45:12.973765+00:00,3.005000,-0.034960,
2025-10-15T15:45:12.978765+00:00,3.010000,-0.035720,
2025-10-15T15:45:12.983765+00:00,3.015000,-0.035340,
2025-10-15T15:45:12.988765+00:00,3.020000,-0.035720,
2025-10-15T15:45:12.993765+00:00,3.025000,-0.036100,
2025-10-15T15:45:12.998765+00:00,3.030000,-0.036480,
2025-10-15T15:45:13.003765+00:00,3.035000,-0.036860,
2025-10-15T15:45:13.008765+00:00,3.040000,-0.039140,
2025-10-15T15:45:13.013765+00:00,3.045000,-0.041800,
2025-10-15T15:45:13.018765+00:00,3.050000,-0.039900,
2025-10-15T15:45:13.023765+00:00,3.055000,-0.035340,
2025-10-15T15:45:13.028765+00:00,3.060000,-0.031160,
2025-10-15T15:45:13.033765+00:00,3.065000,-0.025460,
2025-10-15T15:45:13.038765+00:00,3.070000,-0.019000,
2025-10-15T15:45:13.043765+00:00,3.075000,-0.016340,
2025-10-15T15:45:13.048765+00:00,3.080000,-0.019380,
2025-10-15T15:45:13.053765+00:00,3.085000,-0.027740,
2025-10-15T15:45:13.058765+00:00,3.090000,-0.031540,
2025-10-15T15:45:13.063765+00:00,3.095000,-0.028500,
2025-10-15T15:45:13.068765+00:00,3.100000,-0.022800,
2025-10-15T15:45:13.073765+00:00,3.105000,-0.024700,
2025-10-15T15:45:13.078765+00:00,3.110000,-0.027740,
2025-10-15T15:45:13.083765+00:00,3.115000,-0.030400,
2025-10-15T15:45:13.088765+00:00,3.120000,-0.031540,
2025-10-15T15:45:13.093765+00:00,3.125000,-0.031160,
2025-10-15T15:45:13.098765+00:00,3.130000,-0.030400,
2025-10-15T15:45:13.103765+00:00,3.135000,-0.031160,
2025-10-15T15:45:13.108765+00:00,3.140000,-0.031920,
2025-10-15T15:45:13.113765+00:00,3.145000,-0.030400,
2025-10-15T15:45:13.118765+00:00,3.150000,-0.027740,
2025-10-15T15:45:13.123765+00:00,3.155000,-0.030400,
2025-10-15T15:45:13.128765+00:00,3.160000,-0.032300,
2025-10-15T15:45:13.133765+00:00,3.165000,-0.025840,
2025-10-15T15:45:13.138765+00:00,3.170000,-0.015580,
2025-10-15T15:45:13.143765+00:00,3.175000,-0.026980,
2025-10-15T15:45:13.148765+00:00,3.180000,-0.060040,
2025-10-15T15:45:13.153765+00:00,3.185000,-0.065740,
2025-10-15T15:45:13.158765+00:00,3.190000,0.018620,
2025-10-15T15:45:13.163765+00:00,3.195000,0.209380,
2025-10-15T15:45:13.168765+00:00,3.200000,0.459420,
2025-10-15T15:45:13.173765+00:00,3.205000,0.643340,
2025-10-15T15:45:13.178765+00:00,3.210000,0.593940,
2025-10-15T15:45:13.183765+00:00,3.215000,0.268280,
2025-10-15T15:45:13.188765+00:00,3.220000,-0.167200,
2025-10-15T15:45:13.193765+00:00,3.225000,-0.451060,
2025-10-15T15:45:13.198765+00:00,3.230000,-0.473860,
2025-10-15T15:45:13.203765+00:00,3.235000,-0.349600,
2025-10-15T15:45:13.208765+00:00,3.240000,-0.247380,
2025-10-15T15:45:13.213765+00:00,3.245000,-0.212420,
2025-10-15T15:45:13.218765+00:00,3.250000,-0.192660,
2025-10-15T15:45:13.223765+00:00,3.255000,-0.158460,
2025-10-15T15:45:13.228765+00:00,3.260000,-0.125020,
2025-10-15T15:45:13.233765+00:00,3.265000,-0.102980,
2025-10-15T15:45:13.238765+00:00,3.270000,-0.083980,
2025-10-15T15:45:13.243765+00:00,3.275000,-0.066880,
2025-10-15T15:45:13.248765+00:00,3.280000,-0.051680,
2025-10-15T15:45:13.253765+00:00,3.285000,-0.040280,
2025-10-15T15:45:13.258765+00:00,3.290000,-0.038000,
2025-10-15T15:45:13.263765+00:00,3.295000,-0.040280,
2025-10-15T15:45:13.268765+00:00,3.300000,-0.038380,
2025-10-15T15:45:13.273765+00:00,3.305000,-0.033440,
2025-10-15T15:45:13.278765+00:00,3.310000,-0.028500,
2025-10-15T15:45:13.283765+00:00,3.315000,-0.024320,
2025-10-15T15:45:13.288765+00:00,3.320000,-0.023560,
2025-10-15T15:45:13.293765+00:00,3.325000,-0.024320,
2025-10-15T15:45:13.298765+00:00,3.330000,-0.022420,
2025-10-15T15:45:13.303765+00:00,3.335000,-0.019380,
2025-10-15T15:45:13.308765+00:00,3.340000,-0.014820,
2025-10-15T15:45:13.313765+00:00,3.345000,-0.012540,
2025-10-15T15:45:13.318765+00:00,3.350000,-0.012920,
2025-10-15T15:45:13.323765+00:00,3.355000,-0.016340,
2025-10-15T15:45:13.328765+00:00,3.360000,-0.015580,
2025-10-15T15:45:13.333765+00:00,3.365000,-0.012160,
2025-10-15T15:45:13.338765+00:00,3.370000,-0.006840,
2025-10-15T15:45:13.343765+00:00,3.375000,-0.003800,
2025-10-15T15:45:13.348765+00:00,3.380000,-0.003040,
2025-10-15T15:45:13.353765+00:00,3.385000,-0.003420,
2025-10-15T15:45:13.358765+00:00,3.390000,0.000760,
2025-10-15T15:45:13.363765+00:00,3.395000,0.009500,
2025-10-15T15:45:13.368765+00:00,3.400000,0.019000,
2025-10-15T15:45:13.373765+00:00,3.405000,0.023560,
2025-10-15T15:45:13.378765+00:00,3.410000,0.024320,
2025-10-15T15:45:13.383765+00:00,3.415000,0.022420,
2025-10-15T15:45:13.388765+00:00,3.420000,0.019760,
2025-10-15T15:45:13.393765+00:00,3.425000,0.018240,
2025-10-15T15:45:13.398765+00:00,3.430000,0.018240,
2025-10-15T15:45:13.403765+00:00,3.435000,0.013680,
2025-10-15T15:45:13.408765+00:00,3.440000,0.003040,
2025-10-15T15:45:13.413765+00:00,3.445000,-0.008740,
2025-10-15T15:45:13.418765+00:00,3.450000,-0.014440,
2025-10-15T15:45:13.423765+00:00,3.455000,-0.015960,
2025-10-15T15:45:13.428765+00:00,3.460000,-0.021660,
2025-10-15T15:45:13.433765+00:00,3.465000,-0.039520,
2025-10-15T15:45:13.438765+00:00,3.470000,-0.064600,
2025-10-15T15:45:13.443765+00:00,3.475000,-0.091200,
2025-10-15T15:45:13.448765+00:00,3.480000,-0.115900,
2025-10-15T15:45:13.453765+00:00,3.485000,-0.137180,
2025-10-15T15:45:13.458765+00:00,3.490000,-0.153140,
2025-10-15T15:45:13.463765+00:00,3.495000,-0.162260,
2025-10-15T15:45:13.468765+00:00,3.500000,-0.166820,
2025-10-15T15:45:13.473765+00:00,3.505000,-0.166060,
2025-10-15T15:45:13.478765+00:00,3.510000,-0.160360,
2025-10-15T15:45:13.483765+00:00,3.515000,-0.148580,
2025-10-15T15:45:13.488765+00:00,3.520000,-0.132620,
2025-10-15T15:45:13.493765+00:00,3.525000,-0.119320,
2025-10-15T15:45:13.498765+00:00,3.530000,-0.106400,
2025-10-15T15:45:13.503765+00:00,3.535000,-0.091580,
2025-10-15T15:45:13.508765+00:00,3.540000,-0.074480,
2025-10-15T15:45:13.513765+00:00,3.545000,-0.061940,
2025-10-15T15:45:13.518765+00:00,3.550000,-0.055480,
2025-10-15T15:45:13.523765+00:00,3.555000,-0.052440,
2025-10-15T15:45:13.528765+00:00,3.560000,-0.047120,
2025-10-15T15:45:13.533765+00:00,3.565000,-0.038760,
2025-10-15T15:45:13.538765+00:00,3.570000,-0.032680,
2025-10-15T15:45:13.543765+00:00,3.575000,-0.030400,
2025-10-15T15:45:13.548765+00:00,3.580000,-0.031160,
2025-10-15T15:45:13.553765+00:00,3.585000,-0.030400,
2025-10-15T15:45:13.558765+00:00,3.590000,-0.029640,
2025-10-15T15:45:13.563765+00:00,3.595000,-0.029640,
2025-10-15T15:45:13.568765+00:00,3.600000,-0.028120,
2025-10-15T15:45:13.573765+00:00,3.605000,-0.029260,
2025-10-15T15:45:13.578765+00:00,3.610000,-0.031920,
2025-10-15T15:45:13.583765+00:00,3.615000,-0.034200,
2025-10-15T15:45:13.588765+00:00,3.620000,-0.032300,
2025-10-15T15:45:13.593765+00:00,3.625000,-0.028120,
2025-10-15T15:45:13.598765+00:00,3.630000,-0.024700,
2025-10-15T15:45:13.603765+00:00,3.635000,-0.026600,
2025-10-15T15:45:13.608765+00:00,3.640000,-0.031160,
2025-10-15T15:45:13.613765+00:00,3.645000,-0.033060,
2025-10-15T15:45:13.618765+00:00,3.650000,-0.030780,
2025-10-15T15:45:13.623765+00:00,3.655000,-0.031540,
2025-10-15T15:45:13.628765+00:00,3.660000,-0.034200,
2025-10-15T15:45:13.633765+00:00,3.665000,-0.038380,
2025-10-15T15:45:13.638765+00:00,3.670000,-0.039900,
2025-10-15T15:45:13.643765+00:00,3.675000,-0.036100,
2025-10-15T15:45:13.648765+00:00,3.680000,-0.033820,
2025-10-15T15:45:13.653765+00:00,3.685000,-0.034580,
2025-10-15T15:45:13.658765+00:00,3.690000,-0.034200,
2025-10-15T15:45:13.663765+00:00,3.695000,-0.034200,
2025-10-15T15:45:13.668765+00:00,3.700000,-0.033440,
2025-10-15T15:45:13.673765+00:00,3.705000,-0.036100,
2025-10-15T15:45:13.678765+00:00,3.710000,-0.037240,
2025-10-15T15:45:13.683765+00:00,3.715000,-0.035720,
2025-10-15T15:45:13.688765+00:00,3.720000,-0.030400,
2025-10-15T15:45:13.693765+00:00,3.725000,-0.026980,
2025-10-15T15:45:13.698765+00:00,3.730000,-0.025840,
2025-10-15T15:45:13.703765+00:00,3.735000,-0.026600,
2025-10-15T15:45:13.708765+00:00,3.740000,-0.027740,
2025-10-15T15:45:13.713765+00:00,3.745000,-0.030780,
2025-10-15T15:45:13.718765+00:00,3.750000,-0.036860,
2025-10-15T15:45:13.723765+00:00,3.755000,-0.039900,
2025-10-15T15:45:13.728765+00:00,3.760000,-0.038000,
2025-10-15T15:45:13.733765+00:00,3.765000,-0.030780,
2025-10-15T15:45:13.738765+00:00,3.770000,-0.027740,
2025-10-15T15:45:13.743765+00:00,3.775000,-0.030020,
2025-10-15T15:45:13.748765+00:00,3.780000,-0.035720,
2025-10-15T15:45:13.753765+00:00,3.785000,-0.037240,
2025-10-15T15:45:13.758765+00:00,3.790000,-0.035340,
2025-10-15T15:45:13.763765+00:00,3.795000,-0.032300,
2025-10-15T15:45:13.768765+00:00,3.800000,-0.029260,
2025-10-15T15:45:13.773765+00:00,3.805000,-0.023940,
2025-10-15T15:45:13.778765+00:00,3.810000,-0.020900,
2025-10-15T15:45:13.783765+00:00,3.815000,-0.021660,
2025-10-15T15:45:13.788765+00:00,3.820000,-0.027740,
2025-10-15T15:45:13.793765+00:00,3.825000,-0.031920,
2025-10-15T15:45:13.798765+00:00,3.830000,-0.029260,
2025-10-15T15:45:13.803765+00:00,3.835000,-0.024320,
2025-10-15T15:45:13.808765+00:00,3.840000,-0.025460,
2025-10-15T15:45:13.813765+00:00,3.845000,-0.030400,
2025-10-15T15:45:13.818765+00:00,3.850000,-0.034580,
2025-10-15T15:45:13.823765+00:00,3.855000,-0.030400,
2025-10-15T15:45:13.828765+00:00,3.860000,-0.027360,
2025-10-15T15:45:13.833765+00:00,3.865000,-0.031540,
2025-10-15T15:45:13.838765+00:00,3.870000,-0.039140,
2025-10-15T15:45:13.843765+00:00,3.875000,-0.039900,
2025-10-15T15:45:13.848765+00:00,3.880000,-0.032300,
2025-10-15T15:45:13.853765+00:00,3.885000,-0.025840,
2025-10-15T15:45:13.858765+00:00,3.890000,-0.025460,
2025-10-15T15:45:13.863765+00:00,3.895000,-0.030020,
2025-10-15T15:45:13.868765+00:00,3.900000,-0.022040,
2025-10-15T15:45:13.873765+00:00,3.905000,-0.010640,
2025-10-15T15:45:13.878765+00:00,3.910000,-0.018620,
2025-10-15T15:45:13.883765+00:00,3.915000,-0.052060,
2025-10-15T15:45:13.888765+00:00,3.920000,-0.067260,
2025-10-15T15:45:13.893765+00:00,3.925000,-0.004180,
2025-10-15T15:45:13.898765+00:00,3.930000,0.165680,
2025-10-15T15:45:13.903765+00:00,3.935000,0.402040,
2025-10-15T15:45:13.908765+00:00,3.940000,0.578740,
2025-10-15T15:45:13.913765+00:00,3.945000,0.539600,
2025-10-15T15:45:13.918765+00:00,3.950000,0.238260,
2025-10-15T15:45:13.923765+00:00,3.955000,-0.168340,
2025-10-15T15:45:13.928765+00:00,3.960000,-0.431300,
2025-10-15T15:45:13.933765+00:00,3.965000,-0.449920,
2025-10-15T15:45:13.938765+00:00,3.970000,-0.328700,
2025-10-15T15:45:13.943765+00:00,3.975000,-0.226860,
2025-10-15T15:45:13.948765+00:00,3.980000,-0.190000,
2025-10-15T15:45:13.953765+00:00,3.985000,-0.169100,
2025-10-15T15:45:13.958765+00:00,3.990000,-0.134900,
2025-10-15T15:45:13.963765+00:00,3.995000,-0.104120,
2025-10-15T15:45:13.968765+00:00,4.000000,-0.083600,
2025-10-15T15:45:13.973765+00:00,4.005000,-0.070300,
2025-10-15T15:45:13.978765+00:00,4.010000,-0.060040,
2025-10-15T15:45:13.983765+00:00,4.015000,-0.053580,
2025-10-15T15:45:13.988765+00:00,4.020000,-0.045220,
2025-10-15T15:45:13.993765+00:00,4.025000,-0.037240,
2025-10-15T15:45:13.998765+00:00,4.030000,-0.030780,
2025-10-15T15:45:14.003765+00:00,4.035000,-0.026980,
2025-10-15T15:45:14.008765+00:00,4.040000,-0.025840,
2025-10-15T15:45:14.013765+00:00,4.045000,-0.027740,
2025-10-15T15:45:14.018765+00:00,4.050000,-0.029260,
2025-10-15T15:45:14.023765+00:00,4.055000,-0.026980,
2025-10-15T15:45:14.028765+00:00,4.060000,-0.021660,
2025-10-15T15:45:14.033765+00:00,4.065000,-0.018240,
2025-10-15T15:45:14.038765+00:00,4.070000,-0.017480,
2025-10-15T15:45:14.043765+00:00,4.075000,-0.017860,
2025-10-15T15:45:14.048765+00:00,4.080000,-0.016720,
2025-10-15T15:45:14.053765+00:00,4.085000,-0.015200,
2025-10-15T15:45:14.058765+00:00,4.090000,-0.014820,
2025-10-15T15:45:14.063765+00:00,4.095000,-0.015960,
2025-10-15T15:45:14.068765+00:00,4.100000,-0.012920,
2025-10-15T15:45:14.073765+00:00,4.105000,-0.007980,
2025-10-15T15:45:14.078765+00:00,4.110000,-0.004180,
2025-10-15T15:45:14.083765+00:00,4.115000,-0.003040,
2025-10-15T15:45:14.088765+00:00,4.120000,-0.001520,
2025-10-15T15:45:14.093765+00:00,4.125000,0.003040,
2025-10-15T15:45:14.098765+00:00,4.130000,0.010260,
2025-10-15T15:45:14.103765+00:00,4.135000,0.017480,
2025-10-15T15:45:14.108765+00:00,4.140000,0.021280,
2025-10-15T15:45:14.113765+00:00,4.145000,0.022420,
2025-10-15T15:45:14.118765+00:00,4.150000,0.024320,
2025-10-15T15:45:14.123765+00:00,4.155000,0.026600,
2025-10-15T15:45:14.128765+00:00,4.160000,0.026220,
2025-10-15T15:45:14.133765+00:00,4.165000,0.022420,
2025-10-15T15:45:14.138765+00:00,4.170000,0.015580,
2025-10-15T15:45:14.143765+00:00,4.175000,0.008360,
2025-10-15T15:45:14.148765+00:00,4.180000,0.000760,
2025-10-15T15:45:14.153765+00:00,4.185000,-0.006080,
2025-10-15T15:45:14.158765+00:00,4.190000,-0.016720,
2025-10-15T15:45:14.163765+00:00,4.195000,-0.028500,
2025-10-15T15:45:14.168765+00:00,4.200000,-0.042940,
2025-10-15T15:45:14.173765+00:00,4.205000,-0.060040,
2025-10-15T15:45:14.178765+00:00,4.210000,-0.082840,
2025-10-15T15:45:14.183765+00:00,4.215000,-0.110960,
2025-10-15T15:45:14.188765+00:00,4.220000,-0.137560,
2025-10-15T15:45:14.193765+00:00,4.225000,-0.153140,
2025-10-15T15:45:14.198765+00:00,4.230000,-0.158840,
2025-10-15T15:45:14.203765+00:00,4.235000,-0.155420,
2025-10-15T15:45:14.208765+00:00,4.240000,-0.151240,
2025-10-15T15:45:14.213765+00:00,4.245000,-0.146680,
2025-10-15T15:45:14.218765+00:00,4.250000,-0.142880,
2025-10-15T15:45:14.223765+00:00,4.255000,-0.134140,
2025-10-15T15:45:14.228765+00:00,4.260000,-0.122740,
2025-10-15T15:45:14.233765+00:00,4.265000,-0.106780,
2025-10-15T15:45:14.238765+00:00,4.270000,-0.092340,
2025-10-15T15:45:14.243765+00:00,4.275000,-0.079040,
2025-10-15T15:45:14.248765+00:00,4.280000,-0.069160,
2025-10-15T15:45:14.253765+00:00,4.285000,-0.059660,
2025-10-15T15:45:14.258765+00:00,4.290000,-0.049780,
2025-10-15T15:45:14.263765+00:00,4.295000,-0.040660,
2025-10-15T15:45:14.268765+00:00,4.300000,-0.036100,
2025-10-15T15:45:14.273765+00:00,4.305000,-0.034960,
2025-10-15T15:45:14.278765+00:00,4.310000,-0.034200,
2025-10-15T15:45:14.283765+00:00,4.315000,-0.029260,
2025-10-15T15:45:14.288765+00:00,4.320000,-0.024320,
2025-10-15T15:45:14.293765+00:00,4.325000,-0.021660,
2025-10-15T15:45:14.298765+00:00,4.330000,-0.023560,
2025-10-15T15:45:14.303765+00:00,4.335000,-0.024320,
2025-10-15T15:45:14.308765+00:00,4.340000,-0.023180,
2025-10-15T15:45:14.313765+00:00,4.345000,-0.021280,
2025-10-15T15:45:14.318765+00:00,4.350000,-0.023180,
2025-10-15T15:45:14.323765+00:00,4.355000,-0.028500,
2025-10-15T15:45:14.328765+00:00,4.360000,-0.032300,
2025-10-15T15:45:14.333765+00:00,4.365000,-0.033440,
2025-10-15T15:45:14.338765+00:00,4.370000,-0.033820,
2025-10-15T15:45:14.343765+00:00,4.375000,-0.035340,
2025-10-15T15:45:14.348765+00:00,4.380000,-0.039140,
2025-10-15T15:45:14.353765+00:00,4.385000,-0.041800,
2025-10-15T15:45:14.358765+00:00,4.390000,-0.044080,
2025-10-15T15:45:14.363765+00:00,4.395000,-0.045600,
2025-10-15T15:45:14.368765+00:00,4.400000,-0.044080,
2025-10-15T15:45:14.373765+00:00,4.405000,-0.040660,
2025-10-15T15:45:14.378765+00:00,4.410000,-0.036860,
2025-10-15T15:45:14.383765+00:00,4.415000,-0.036100,
2025-10-15T15:45:14.388765+00:00,4.420000,-0.039520,
2025-10-15T15:45:14.393765+00:00,4.425000,-0.040280,
2025-10-15T15:45:14.398765+00:00,4.430000,-0.036480,
2025-10-15T15:45:14.403765+00:00,4.435000,-0.029640,
2025-10-15T15:45:14.408765+00:00,4.440000,-0.024320,
2025-10-15T15:45:14.413765+00:00,4.445000,-0.022420,
2025-10-15T15:45:14.418765+00:00,4.450000,-0.023560,
2025-10-15T15:45:14.423765+00:00,4.455000,-0.027740,
2025-10-15T15:45:14.428765+00:00,4.460000,-0.031540,
2025-10-15T15:45:14.433765+00:00,4.465000,-0.031540,
2025-10-15T15:45:14.438765+00:00,4.470000,-0.032300,
2025-10-15T15:45:14.443765+00:00,4.475000,-0.034200,
2025-10-15T15:45:14.448765+00:00,4.480000,-0.034960,
2025-10-15T15:45:14.453765+00:00,4.485000,-0.035340,
2025-10-15T15:45:14.458765+00:00,4.490000,-0.033060,
2025-10-15T15:45:14.463765+00:00,4.495000,-0.030400,
2025-10-15T15:45:14.468765+00:00,4.500000,-0.034200,
2025-10-15T15:45:14.473765+00:00,4.505000,-0.041800,
2025-10-15T15:45:14.478765+00:00,4.510000,-0.046740,
2025-10-15T15:45:14.483765+00:00,4.515000,-0.045600,
2025-10-15T15:45:14.488765+00:00,4.520000,-0.039900,
2025-10-15T15:45:14.493765+00:00,4.525000,-0.033820,
2025-10-15T15:45:14.498765+00:00,4.530000,-0.031160,
2025-10-15T15:45:14.503765+00:00,4.535000,-0.029640,
2025-10-15T15:45:14.508765+00:00,4.540000,-0.026600,
2025-10-15T15:45:14.513765+00:00,4.545000,-0.020520,
2025-10-15T15:45:14.518765+00:00,4.550000,-0.014060,
2025-10-15T15:45:14.523765+00:00,4.555000,-0.007600,
2025-10-15T15:45:14.528765+00:00,4.560000,-0.007600,
2025-10-15T15:45:14.533765+00:00,4.565000,-0.016340,
2025-10-15T15:45:14.538765+00:00,4.570000,-0.028120,
2025-10-15T15:45:14.543765+00:00,4.575000,-0.034200,
2025-10-15T15:45:14.548765+00:00,4.580000,-0.033060,
2025-10-15T15:45:14.553765+00:00,4.585000,-0.028500,
2025-10-15T15:45:14.558765+00:00,4.590000,-0.027740,
2025-10-15T15:45:14.563765+00:00,4.595000,-0.030780,
2025-10-15T15:45:14.568765+00:00,4.600000,-0.031920,
2025-10-15T15:45:14.573765+00:00,4.605000,-0.031540,
2025-10-15T15:45:14.578765+00:00,4.610000,-0.029260,
2025-10-15T15:45:14.583765+00:00,4.615000,-0.028880,
2025-10-15T15:45:14.588765+00:00,4.620000,-0.027740,
2025-10-15T15:45:14.593765+00:00,4.625000,-0.028120,
2025-10-15T15:45:14.598765+00:00,4.630000,-0.028500,
2025-10-15T15:45:14.603765+00:00,4.635000,-0.031160,
2025-10-15T15:45:14.608765+00:00,4.640000,-0.035720,
2025-10-15T15:45:14.613765+00:00,4.645000,-0.031160,
2025-10-15T15:45:14.618765+00:00,4.650000,-0.016340,
2025-10-15T15:45:14.623765+00:00,4.655000,-0.014060,
2025-10-15T15:45:14.628765+00:00,4.660000,-0.040660,
2025-10-15T15:45:14.633765+00:00,4.665000,-0.069160,
2025-10-15T15:45:14.638765+00:00,4.670000,-0.041420,
2025-10-15T15:45:14.643765+00:00,4.675000,0.087780,
2025-10-15T15:45:14.648765+00:00,4.680000,0.304000,
2025-10-15T15:45:14.653765+00:00,4.685000,0.529340,
2025-10-15T15:45:14.658765+00:00,4.690000,0.606860,
2025-10-15T15:45:14.663765+00:00,4.695000,0.418380,
2025-10-15T15:45:14.668765+00:00,4.700000,0.026600,
2025-10-15T15:45:14.673765+00:00,4.705000,-0.335540,
2025-10-15T15:45:14.678765+00:00,4.710000,-0.471200,
2025-10-15T15:45:14.683765+00:00,4.715000,-0.395200,
2025-10-15T15:45:14.688765+00:00,4.720000,-0.271700,
2025-10-15T15:45:14.693765+00:00,4.725000,-0.206720,
2025-10-15T15:45:14.698765+00:00,4.730000,-0.182020,
2025-10-15T15:45:14.703765+00:00,4.735000,-0.156560,
2025-10-15T15:45:14.708765+00:00,4.740000,-0.126540,
2025-10-15T15:45:14.713765+00:00,4.745000,-0.104120,
2025-10-15T15:45:14.718765+00:00,4.750000,-0.086260,
2025-10-15T15:45:14.723765+00:00,4.755000,-0.070680,
2025-10-15T15:45:14.728765+00:00,4.760000,-0.059660,
2025-10-15T15:45:14.733765+00:00,4.765000,-0.050920,
2025-10-15T15:45:14.738765+00:00,4.770000,-0.042560,
2025-10-15T15:45:14.743765+00:00,4.775000,-0.036860,
2025-10-15T15:45:14.748765+00:00,4.780000,-0.034580,
2025-10-15T15:45:14.753765+00:00,4.785000,-0.033440,
2025-10-15T15:45:14.758765+00:00,4.790000,-0.033060,
2025-10-15T15:45:14.763765+00:00,4.795000,-0.031920,
2025-10-15T15:45:14.768765+00:00,4.800000,-0.027740,
2025-10-15T15:45:14.773765+00:00,4.805000,-0.022420,
2025-10-15T15:45:14.778765+00:00,4.810000,-0.018240,
2025-10-15T15:45:14.783765+00:00,4.815000,-0.015580,
2025-10-15T15:45:14.788765+00:00,4.820000,-0.014060,
2025-10-15T15:45:14.793765+00:00,4.825000,-0.015960,
2025-10-15T15:45:14.798765+00:00,4.830000,-0.018620,
2025-10-15T15:45:14.803765+00:00,4.835000,-0.020520,
2025-10-15T15:45:14.808765+00:00,4.840000,-0.019760,
2025-10-15T15:45:14.813765+00:00,4.845000,-0.014820,
2025-10-15T15:45:14.818765+00:00,4.850000,-0.011400,
2025-10-15T15:45:14.823765+00:00,4.855000,-0.009120,
2025-10-15T15:45:14.828765+00:00,4.860000,-0.006840,
2025-10-15T15:45:14.833765+00:00,4.865000,-0.002280,
2025-10-15T15:45:14.838765+00:00,4.870000,0.003420,
2025-10-15T15:45:14.843765+00:00,4.875000,0.006840,
2025-10-15T15:45:14.848765+00:00,4.880000,0.008740,
2025-10-15T15:45:14.853765+00:00,4.885000,0.011400,
2025-10-15T15:45:14.858765+00:00,4.890000,0.016340,
2025-10-15T15:45:14.863765+00:00,4.895000,0.022420,
2025-10-15T15:45:14.868765+00:00,4.900000,0.025840,
2025-10-15T15:45:14.873765+00:00,4.905000,0.025080,
2025-10-15T15:45:14.878765+00:00,4.910000,0.020140,
2025-10-15T15:45:14.883765+00:00,4.915000,0.013300,
2025-10-15T15:45:14.888765+00:00,4.920000,0.003420,
2025-10-15T15:45:14.893765+00:00,4.925000,-0.006840,
2025-10-15T15:45:14.898765+00:00,4.930000,-0.012540,
2025-10-15T15:45:14.903765+00:00,4.935000,-0.017100,
2025-10-15T15:45:14.908765+00:00,4.940000,-0.022040,
2025-10-15T15:45:14.913765+00:00,4.945000,-0.030400,
2025-10-15T15:45:14.918765+00:00,4.950000,-0.045220,
2025-10-15T15:45:14.923765+00:00,4.955000,-0.066500,
2025-10-15T15:45:14.928765+00:00,4.960000,-0.093100,
2025-10-15T15:45:14.933765+00:00,4.965000,-0.119320,
2025-10-15T15:45:14.938765+00:00,4.970000,-0.142500,
2025-10-15T15:45:14.943765+00:00,4.975000,-0.158460,
2025-10-15T15:45:14.948765+00:00,4.980000,-0.163400,
2025-10-15T15:45:14.953765+00:00,4.985000,-0.163400,
2025-10-15T15:45:14.958765+00:00,4.990000,-0.155800,
2025-10-15T15:45:14.963765+00:00,4.995000,-0.144780,
2025-10-15T15:45:14.968765+00:00,5.000000,-0.133000,
2025-10-15T15:45:14.973765+00:00,5.005000,-0.118940,
2025-10-15T15:45:14.978765+00:00,5.010000,-0.103740,
2025-10-15T15:45:14.983765+00:00,5.015000,-0.089300,
2025-10-15T15:45:14.988765+00:00,5.020000,-0.077520,
2025-10-15T15:45:14.993765+00:00,5.025000,-0.065740,
2025-10-15T15:45:14.998765+00:00,5.030000,-0.057380,
2025-10-15T15:45:15.003765+00:00,5.035000,-0.050540,
2025-10-15T15:45:15.008765+00:00,5.040000,-0.046360,
2025-10-15T15:45:15.013765+00:00,5.045000,-0.043700,
2025-10-15T15:45:15.018765+00:00,5.050000,-0.041040,
2025-10-15T15:45:15.023765+00:00,5.055000,-0.038000,
2025-10-15T15:45:15.028765+00:00,5.060000,-0.034960,
2025-10-15T15:45:15.033765+00:00,5.065000,-0.033440,
2025-10-15T15:45:15.038765+00:00,5.070000,-0.031920,
2025-10-15T15:45:15.043765+00:00,5.075000,-0.029260,
2025-10-15T15:45:15.048765+00:00,5.080000,-0.026980,
2025-10-15T15:45:15.053765+00:00,5.085000,-0.026980,
2025-10-15T15:45:15.058765+00:00,5.090000,-0.028120,
2025-10-15T15:45:15.063765+00:00,5.095000,-0.031160,
2025-10-15T15:45:15.068765+00:00,5.100000,-0.032680,
2025-10-15T15:45:15.073765+00:00,5.105000,-0.031540,
2025-10-15T15:45:15.078765+00:00,5.110000,-0.031540,
2025-10-15T15:45:15.083765+00:00,5.115000,-0.032300,
2025-10-15T15:45:15.088765+00:00,5.120000,-0.033440,
2025-10-15T15:45:15.093765+00:00,5.125000,-0.036480,
2025-10-15T15:45:15.098765+00:00,5.130000,-0.038380,
2025-10-15T15:45:15.103765+00:00,5.135000,-0.039140,
2025-10-15T15:45:15.108765+00:00,5.140000,-0.037620,
2025-10-15T15:45:15.113765+00:00,5.145000,-0.036100,
2025-10-15T15:45:15.118765+00:00,5.150000,-0.036100,
2025-10-15T15:45:15.123765+00:00,5.155000,-0.037240,
2025-10-15T15:45:15.128765+00:00,5.160000,-0.039900,
2025-10-15T15:45:15.133765+00:00,5.165000,-0.039520,
2025-10-15T15:45:15.138765+00:00,5.170000,-0.038380,
2025-10-15T15:45:15.143765+00:00,5.175000,-0.037240,
2025-10-15T15:45:15.148765+00:00,5.180000,-0.035720,
2025-10-15T15:45:15.153765+00:00,5.185000,-0.034200,
2025-10-15T15:45:15.158765+00:00,5.190000,-0.034960,
2025-10-15T15:45:15.163765+00:00,5.195000,-0.037240,
2025-10-15T15:45:15.168765+00:00,5.200000,-0.038000,
2025-10-15T15:45:15.173765+00:00,5.205000,-0.037620,
2025-10-15T15:45:15.178765+00:00,5.210000,-0.034200,
2025-10-15T15:45:15.183765+00:00,5.215000,-0.029640,
2025-10-15T15:45:15.188765+00:00,5.220000,-0.026600,
2025-10-15T15:45:15.193765+00:00,5.225000,-0.026980,
2025-10-15T15:45:15.198765+00:00,5.230000,-0.029640,
2025-10-15T15:45:15.203765+00:00,5.235000,-0.032300,
2025-10-15T15:45:15.208765+00:00,5.240000,-0.035340,
2025-10-15T15:45:15.213765+00:00,5.245000,-0.035720,
2025-10-15T15:45:15.218765+00:00,5.250000,-0.034200,
2025-10-15T15:45:15.223765+00:00,5.255000,-0.032300,
2025-10-15T15:45:15.228765+00:00,5.260000,-0.034200,
2025-10-15T15:45:15.233765+00:00,5.265000,-0.039140,
2025-10-15T15:45:15.238765+00:00,5.270000,-0.043700,
2025-10-15T15:45:15.243765+00:00,5.275000,-0.043700,
2025-10-15T15:45:15.248765+00:00,5.280000,-0.037620,
2025-10-15T15:45:15.253765+00:00,5.285000,-0.031160,
2025-10-15T15:45:15.258765+00:00,5.290000,-0.026220,
2025-10-15T15:45:15.263765+00:00,5.295000,-0.022800,
2025-10-15T15:45:15.268765+00:00,5.300000,-0.022040,
2025-10-15T15:45:15.273765+00:00,5.305000,-0.025840,
2025-10-15T15:45:15.278765+00:00,5.310000,-0.032300,
2025-10-15T15:45:15.283765+00:00,5.315000,-0.036100,
2025-10-15T15:45:15.288765+00:00,5.320000,-0.032680,
2025-10-15T15:45:15.293765+00:00,5.325000,-0.026220,
2025-10-15T15:45:15.298765+00:00,5.330000,-0.022040,
2025-10-15T15:45:15.303765+00:00,5.335000,-0.021660,
2025-10-15T15:45:15.308765+00:00,5.340000,-0.023180,
2025-10-15T15:45:15.313765+00:00,5.345000,-0.025460,
2025-10-15T15:45:15.318765+00:00,5.350000,-0.029260,
2025-10-15T15:45:15.323765+00:00,5.355000,-0.031160,
2025-10-15T15:45:15.328765+00:00,5.360000,-0.031540,
2025-10-15T15:45:15.333765+00:00,5.365000,-0.030780,
2025-10-15T15:45:15.338765+00:00,5.370000,-0.030780,
2025-10-15T15:45:15.343765+00:00,5.375000,-0.030780,
2025-10-15T15:45:15.348765+00:00,5.380000,-0.032300,
2025-10-15T15:45:15.353765+00:00,5.385000,-0.031920,
2025-10-15T15:45:15.358765+00:00,5.390000,-0.022800,
2025-10-15T15:45:15.363765+00:00,5.395000,-0.011780,
2025-10-15T15:45:15.368765+00:00,5.400000,-0.023560,
2025-10-15T15:45:15.373765+00:00,5.405000,-0.060040,
2025-10-15T15:45:15.378765+00:00,5.410000,-0.072200,
2025-10-15T15:45:15.383765+00:00,5.415000,0.001900,
2025-10-15T15:45:15.388765+00:00,5.420000,0.175940,
2025-10-15T15:45:15.393765+00:00,5.425000,0.409260,
2025-10-15T15:45:15.398765+00:00,5.430000,0.593560,
2025-10-15T15:45:15.403765+00:00,5.435000,0.577600,
2025-10-15T15:45:15.408765+00:00,5.440000,0.296400,
2025-10-15T15:45:15.413765+00:00,5.445000,-0.116660,
2025-10-15T15:45:15.418765+00:00,5.450000,-0.415340,
2025-10-15T15:45:15.423765+00:00,5.455000,-0.467400,
2025-10-15T15:45:15.428765+00:00,5.460000,-0.359480,
2025-10-15T15:45:15.433765+00:00,5.465000,-0.253840,
2025-10-15T15:45:15.438765+00:00,5.470000,-0.210140,
2025-10-15T15:45:15.443765+00:00,5.475000,-0.185820,
2025-10-15T15:45:15.448765+00:00,5.480000,-0.153520,
2025-10-15T15:45:15.453765+00:00,5.485000,-0.122740,
2025-10-15T15:45:15.458765+00:00,5.490000,-0.101460,
2025-10-15T15:45:15.463765+00:00,5.495000,-0.083600,
2025-10-15T15:45:15.468765+00:00,5.500000,-0.068020,
2025-10-15T15:45:15.473765+00:00,5.505000,-0.056240,
2025-10-15T15:45:15.478765+00:00,5.510000,-0.046740,
2025-10-15T15:45:15.483765+00:00,5.515000,-0.041420,
2025-10-15T15:45:15.488765+00:00,5.520000,-0.036100,
2025-10-15T15:45:15.493765+00:00,5.525000,-0.031540,
2025-10-15T15:45:15.498765+00:00,5.530000,-0.028120,
2025-10-15T15:45:15.503765+00:00,5.535000,-0.028120,
2025-10-15T15:45:15.508765+00:00,5.540000,-0.026600,
2025-10-15T15:45:15.513765+00:00,5.545000,-0.023940,
2025-10-15T15:45:15.518765+00:00,5.550000,-0.022420,
2025-10-15T15:45:15.523765+00:00,5.555000,-0.022040,
2025-10-15T15:45:15.528765+00:00,5.560000,-0.020900,
2025-10-15T15:45:15.533765+00:00,5.565000,-0.019000,
2025-10-15T15:45:15.538765+00:00,5.570000,-0.015200,
2025-10-15T15:45:15.543765+00:00,5.575000,-0.012920,
2025-10-15T15:45:15.548765+00:00,5.580000,-0.012920,
2025-10-15T15:45:15.553765+00:00,5.585000,-0.012920,
2025-10-15T15:45:15.558765+00:00,5.590000,-0.012160,
2025-10-15T15:45:15.563765+00:00,5.595000,-0.011020,
2025-10-15T15:45:15.568765+00:00,5.600000,-0.006840,
2025-10-15T15:45:15.573765+00:00,5.605000,-0.001900,
2025-10-15T15:45:15.578765+00:00,5.610000,0.003040,
2025-10-15T15:45:15.583765+00:00,5.615000,0.006080,
2025-10-15T15:45:15.588765+00:00,5.620000,0.009120,
2025-10-15T15:45:15.593765+00:00,5.625000,0.011400,
2025-10-15T15:45:15.598765+00:00,5.630000,0.016340,
2025-10-15T15:45:15.603765+00:00,5.635000,0.020900,
2025-10-15T15:45:15.608765+00:00,5.640000,0.024700,
2025-10-15T15:45:15.613765+00:00,5.645000,0.026220,
2025-10-15T15:45:15.618765+00:00,5.650000,0.024320,
2025-10-15T15:45:15.623765+00:00,5.655000,0.016720,
2025-10-15T15:45:15.628765+00:00,5.660000,0.007600,
2025-10-15T15:45:15.633765+00:00,5.665000,-0.003420,
2025-10-15T15:45:15.638765+00:00,5.670000,-0.009880,
2025-10-15T15:45:15.643765+00:00,5.675000,-0.012540,
2025-10-15T15:45:15.648765+00:00,5.680000,-0.014060,
2025-10-15T15:45:15.653765+00:00,5.685000,-0.021280,
2025-10-15T15:45:15.658765+00:00,5.690000,-0.035720,
2025-10-15T15:45:15.663765+00:00,5.695000,-0.055860,
2025-10-15T15:45:15.668765+00:00,5.700000,-0.077900,
2025-10-15T15:45:15.673765+00:00,5.705000,-0.102980,
2025-10-15T15:45:15.678765+00:00,5.710000,-0.128440,
2025-10-15T15:45:15.683765+00:00,5.715000,-0.152760,
2025-10-15T15:45:15.688765+00:00,5.720000,-0.169100,
2025-10-15T15:45:15.693765+00:00,5.725000,-0.172900,
2025-10-15T15:45:15.698765+00:00,5.730000,-0.166440,
2025-10-15T15:45:15.703765+00:00,5.735000,-0.156940,
2025-10-15T15:45:15.708765+00:00,5.740000,-0.145540,
2025-10-15T15:45:15.713765+00:00,5.745000,-0.134520,
2025-10-15T15:45:15.718765+00:00,5.750000,-0.121600,
2025-10-15T15:45:15.723765+00:00,5.755000,-0.104500,
2025-10-15T15:45:15.728765+00:00,5.760000,-0.087400,
2025-10-15T15:45:15.733765+00:00,5.765000,-0.074480,
2025-10-15T15:45:15.738765+00:00,5.770000,-0.063840,
2025-10-15T15:45:15.743765+00:00,5.775000,-0.056240,
2025-10-15T15:45:15.748765+00:00,5.780000,-0.048260,
2025-10-15T15:45:15.753765+00:00,5.785000,-0.041420,
2025-10-15T15:45:15.758765+00:00,5.790000,-0.038000,
2025-10-15T15:45:15.763765+00:00,5.795000,-0.035340,
2025-10-15T15:45:15.768765+00:00,5.800000,-0.033060,
2025-10-15T15:45:15.773765+00:00,5.805000,-0.031540,
2025-10-15T15:45:15.778765+00:00,5.810000,-0.034200,
2025-10-15T15:45:15.783765+00:00,5.815000,-0.036480,
2025-10-15T15:45:15.788765+00:00,5.820000,-0.037240,
2025-10-15T15:45:15.793765+00:00,5.825000,-0.031920,
2025-10-15T15:45:15.798765+00:00,5.830000,-0.024320,
2025-10-15T15:45:15.803765+00:00,5.835000,-0.022040,
2025-10-15T15:45:15.808765+00:00,5.840000,-0.025460,
2025-10-15T15:45:15.813765+00:00,5.845000,-0.030780,
2025-10-15T15:45:15.818765+00:00,5.850000,-0.036100,
2025-10-15T15:45:15.823765+00:00,5.855000,-0.038380,
2025-10-15T15:45:15.828765+00:00,5.860000,-0.038380,
2025-10-15T15:45:15.833765+00:00,5.865000,-0.037240,
2025-10-15T15:45:15.838765+00:00,5.870000,-0.037620,
2025-10-15T15:45:15.843765+00:00,5.875000,-0.038380,
2025-10-15T15:45:15.848765+00:00,5.880000,-0.037620,
2025-10-15T15:45:15.853765+00:00,5.885000,-0.038000,
2025-10-15T15:45:15.858765+00:00,5.890000,-0.040280,
2025-10-15T15:45:15.863765+00:00,5.895000,-0.043700,
2025-10-15T15:45:15.868765+00:00,5.900000,-0.044460,
2025-10-15T15:45:15.873765+00:00,5.905000,-0.041800,
2025-10-15T15:45:15.878765+00:00,5.910000,-0.040280,
2025-10-15T15:45:15.883765+00:00,5.915000,-0.039520,
2025-10-15T15:45:15.888765+00:00,5.920000,-0.039520,
2025-10-15T15:45:15.893765+00:00,5.925000,-0.038380,
2025-10-15T15:45:15.898765+00:00,5.930000,-0.036480,
2025-10-15T15:45:15.903765+00:00,5.935000,-0.035340,
2025-10-15T15:45:15.908765+00:00,5.940000,-0.033820,
2025-10-15T15:45:15.913765+00:00,5.945000,-0.031920,
2025-10-15T15:45:15.918765+00:00,5.950000,-0.032680,
2025-10-15T15:45:15.923765+00:00,5.955000,-0.036480,
2025-10-15T15:45:15.928765+00:00,5.960000,-0.039520,
2025-10-15T15:45:15.933765+00:00,5.965000,-0.040660,
2025-10-15T15:45:15.938765+00:00,5.970000,-0.038760,
2025-10-15T15:45:15.943765+00:00,5.975000,-0.037240,
2025-10-15T15:45:15.948765+00:00,5.980000,-0.037620,
2025-10-15T15:45:15.953765+00:00,5.985000,-0.039140,
2025-10-15T15:45:15.958765+00:00,5.990000,-0.041040,
2025-10-15T15:45:15.963765+00:00,5.995000,-0.042180,
2025-10-15T15:45:15.968765+00:00,6.000000,-0.040660,
2025-10-15T15:45:15.973765+00:00,6.005000,-0.037620,
2025-10-15T15:45:15.978765+00:00,6.010000,-0.033440,
2025-10-15T15:45:15.983765+00:00,6.015000,-0.028120,
2025-10-15T15:45:15.988765+00:00,6.020000,-0.022800,
2025-10-15T15:45:15.993765+00:00,6.025000,-0.016340,
2025-10-15T15:45:15.998765+00:00,6.030000,-0.008740,
2025-10-15T15:45:16.003765+00:00,6.035000,-0.005700,
2025-10-15T15:45:16.008765+00:00,6.040000,-0.012540,
2025-10-15T15:45:16.013765+00:00,6.045000,-0.026600,
2025-10-15T15:45:16.018765+00:00,6.050000,-0.037620,
2025-10-15T15:45:16.023765+00:00,6.055000,-0.040280,
2025-10-15T15:45:16.028765+00:00,6.060000,-0.038000,
2025-10-15T15:45:16.033765+00:00,6.065000,-0.034580,
2025-10-15T15:45:16.038765+00:00,6.070000,-0.033440,
2025-10-15T15:45:16.043765+00:00,6.075000,-0.032680,
2025-10-15T15:45:16.048765+00:00,6.080000,-0.034580,
2025-10-15T15:45:16.053765+00:00,6.085000,-0.036860,
2025-10-15T15:45:16.058765+00:00,6.090000,-0.037620,
2025-10-15T15:45:16.063765+00:00,6.095000,-0.034960,
2025-10-15T15:45:16.068765+00:00,6.100000,-0.033440,
2025-10-15T15:45:16.073765+00:00,6.105000,-0.034200,
2025-10-15T15:45:16.078765+00:00,6.110000,-0.037240,
2025-10-15T15:45:16.083765+00:00,6.115000,-0.039520,
2025-10-15T15:45:16.088765+00:00,6.120000,-0.034960,
2025-10-15T15:45:16.093765+00:00,6.125000,-0.019380,
2025-10-15T15:45:16.098765+00:00,6.130000,-0.007600,
2025-10-15T15:45:16.103765+00:00,6.135000,-0.022800,
2025-10-15T15:45:16.108765+00:00,6.140000,-0.060420,
2025-10-15T15:45:16.113765+00:00,6.145000,-0.066500,
2025-10-15T15:45:16.118765+00:00,6.150000,0.016340,
2025-10-15T15:45:16.123765+00:00,6.155000,0.207100,
2025-10-15T15:45:16.128765+00:00,6.160000,0.453720,
2025-10-15T15:45:16.133765+00:00,6.165000,0.622060,
2025-10-15T15:45:16.138765+00:00,6.170000,0.554800,
2025-10-15T15:45:16.143765+00:00,6.175000,0.222300,
2025-10-15T15:45:16.148765+00:00,6.180000,-0.194560,
2025-10-15T15:45:16.153765+00:00,6.185000,-0.449540,
2025-10-15T15:45:16.158765+00:00,6.190000,-0.459040,
2025-10-15T15:45:16.163765+00:00,6.195000,-0.340480,
2025-10-15T15:45:16.168765+00:00,6.200000,-0.245860,
2025-10-15T15:45:16.173765+00:00,6.205000,-0.207480,
2025-10-15T15:45:16.178765+00:00,6.210000,-0.182020,
2025-10-15T15:45:16.183765+00:00,6.215000,-0.149340,
2025-10-15T15:45:16.188765+00:00,6.220000,-0.118940,
2025-10-15T15:45:16.193765+00:00,6.225000,-0.095000,
2025-10-15T15:45:16.198765+00:00,6.230000,-0.076380,
2025-10-15T15:45:16.203765+00:00,6.235000,-0.064220,
2025-10-15T15:45:16.208765+00:00,6.240000,-0.057760,
2025-10-15T15:45:16.213765+00:00,6.245000,-0.050920,
2025-10-15T15:45:16.218765+00:00,6.250000,-0.041800,
2025-10-15T15:45:16.223765+00:00,6.255000,-0.035340,
2025-10-15T15:45:16.228765+00:00,6.260000,-0.031540,
2025-10-15T15:45:16.233765+00:00,6.265000,-0.028120,
2025-10-15T15:45:16.238765+00:00,6.270000,-0.024320,
2025-10-15T15:45:16.243765+00:00,6.275000,-0.021280,
2025-10-15T15:45:16.248765+00:00,6.280000,-0.020520,
2025-10-15T15:45:16.253765+00:00,6.285000,-0.022800,
2025-10-15T15:45:16.258765+00:00,6.290000,-0.023560,
2025-10-15T15:45:16.263765+00:00,6.295000,-0.021660,
2025-10-15T15:45:16.268765+00:00,6.300000,-0.018240,
2025-10-15T15:45:16.273765+00:00,6.305000,-0.016720,
2025-10-15T15:45:16.278765+00:00,6.310000,-0.016340,
2025-10-15T15:45:16.283765+00:00,6.315000,-0.016720,
2025-10-15T15:45:16.288765+00:00,6.320000,-0.017100,
2025-10-15T15:45:16.293765+00:00,6.325000,-0.015200,
2025-10-15T15:45:16.298765+00:00,6.330000,-0.010260,
2025-10-15T15:45:16.303765+00:00,6.335000,-0.003800,
2025-10-15T15:45:16.308765+00:00,6.340000,0.002660,
2025-10-15T15:45:16.313765+00:00,6.345000,0.005320,
2025-10-15T15:45:16.318765+00:00,6.350000,0.005700,
2025-10-15T15:45:16.323765+00:00,6.355000,0.008740,
2025-10-15T15:45:16.328765+00:00,6.360000,0.011780,
2025-10-15T15:45:16.333765+00:00,6.365000,0.015200,
2025-10-15T15:45:16.338765+00:00,6.370000,0.017860,
2025-10-15T15:45:16.343765+00:00,6.375000,0.022040,
2025-10-15T15:45:16.348765+00:00,6.380000,0.025080,
2025-10-15T15:45:16.353765+00:00,6.385000,0.023560,
2025-10-15T15:45:16.358765+00:00,6.390000,0.018240,
2025-10-15T15:45:16.363765+00:00,6.395000,0.012540,
2025-10-15T15:45:16.368765+00:00,6.400000,0.005320,
2025-10-15T15:45:16.373765+00:00,6.405000,-0.002280,
2025-10-15T15:45:16.378765+00:00,6.410000,-0.011020,
2025-10-15T15:45:16.383765+00:00,6.415000,-0.020140,
2025-10-15T15:45:16.388765+00:00,6.420000,-0.029260,
2025-10-15T15:45:16.393765+00:00,6.425000,-0.042940,
2025-10-15T15:45:16.398765+00:00,6.430000,-0.063460,
2025-10-15T15:45:16.403765+00:00,6.435000,-0.088920,
2025-10-15T15:45:16.408765+00:00,6.440000,-0.118560,
2025-10-15T15:45:16.413765+00:00,6.445000,-0.143640,
2025-10-15T15:45:16.418765+00:00,6.450000,-0.160360,
2025-10-15T15:45:16.423765+00:00,6.455000,-0.166820,
2025-10-15T15:45:16.428765+00:00,6.460000,-0.167200,
2025-10-15T15:45:16.433765+00:00,6.465000,-0.163020,
2025-10-15T15:45:16.438765+00:00,6.470000,-0.158460,
2025-10-15T15:45:16.443765+00:00,6.475000,-0.153140,
2025-10-15T15:45:16.448765+00:00,6.480000,-0.143640,
2025-10-15T15:45:16.453765+00:00,6.485000,-0.129960,
2025-10-15T15:45:16.458765+00:00,6.490000,-0.116280,
2025-10-15T15:45:16.463765+00:00,6.495000,-0.102600,
2025-10-15T15:45:16.468765+00:00,6.500000,-0.094620,
2025-10-15T15:45:16.473765+00:00,6.505000,-0.083980,
2025-10-15T15:45:16.478765+00:00,6.510000,-0.072960,
2025-10-15T15:45:16.483765+00:00,6.515000,-0.066120,
2025-10-15T15:45:16.488765+00:00,6.520000,-0.059660,
2025-10-15T15:45:16.493765+00:00,6.525000,-0.054340,
2025-10-15T15:45:16.498765+00:00,6.530000,-0.047120,
2025-10-15T15:45:16.503765+00:00,6.535000,-0.041420,
2025-10-15T15:45:16.508765+00:00,6.540000,-0.037620,
2025-10-15T15:45:16.513765+00:00,6.545000,-0.035720,
2025-10-15T15:45:16.518765+00:00,6.550000,-0.037240,
2025-10-15T15:45:16.523765+00:00,6.555000,-0.038380,
2025-10-15T15:45:16.528765+00:00,6.560000,-0.033440,
2025-10-15T15:45:16.533765+00:00,6.565000,-0.025080,
2025-10-15T15:45:16.538765+00:00,6.570000,-0.022420,
2025-10-15T15:45:16.543765+00:00,6.575000,-0.028120,
2025-10-15T15:45:16.548765+00:00,6.580000,-0.038380,
2025-10-15T15:45:16.553765+00:00,6.585000,-0.042940,
2025-10-15T15:45:16.558765+00:00,6.590000,-0.038380,
2025-10-15T15:45:16.563765+00:00,6.595000,-0.031160,
2025-10-15T15:45:16.568765+00:00,6.600000,-0.029260,
2025-10-15T15:45:16.573765+00:00,6.605000,-0.033060,
2025-10-15T15:45:16.578765+00:00,6.610000,-0.039140,
2025-10-15T15:45:16.583765+00:00,6.615000,-0.041800,
2025-10-15T15:45:16.588765+00:00,6.620000,-0.037240,
2025-10-15T15:45:16.593765+00:00,6.625000,-0.030780,
2025-10-15T15:45:16.598765+00:00,6.630000,-0.028500,
2025-10-15T15:45:16.603765+00:00,6.635000,-0.028500,
2025-10-15T15:45:16.608765+00:00,6.640000,-0.031920,
2025-10-15T15:45:16.613765+00:00,6.645000,-0.034580,
2025-10-15T15:45:16.618765+00:00,6.650000,-0.037240,
2025-10-15T15:45:16.623765+00:00,6.655000,-0.037620,
2025-10-15T15:45:16.628765+00:00,6.660000,-0.036100,
2025-10-15T15:45:16.633765+00:00,6.665000,-0.034960,
2025-10-15T15:45:16.638765+00:00,6.670000,-0.035720,
2025-10-15T15:45:16.643765+00:00,6.675000,-0.036480,
2025-10-15T15:45:16.648765+00:00,6.680000,-0.035340,
2025-10-15T15:45:16.653765+00:00,6.685000,-0.032300,
2025-10-15T15:45:16.658765+00:00,6.690000,-0.033060,
2025-10-15T15:45:16.663765+00:00,6.695000,-0.035340,
2025-10-15T15:45:16.668765+00:00,6.700000,-0.034580,
2025-10-15T15:45:16.673765+00:00,6.705000,-0.031160,
2025-10-15T15:45:16.678765+00:00,6.710000,-0.030400,
2025-10-15T15:45:16.683765+00:00,6.715000,-0.034960,
2025-10-15T15:45:16.688765+00:00,6.720000,-0.041040,
2025-10-15T15:45:16.693765+00:00,6.725000,-0.039520,
2025-10-15T15:45:16.698765+00:00,6.730000,-0.029640,
2025-10-15T15:45:16.703765+00:00,6.735000,-0.019760,
2025-10-15T15:45:16.708765+00:00,6.740000,-0.013680,
2025-10-15T15:45:16.713765+00:00,6.745000,-0.010640,
2025-10-15T15:45:16.718765+00:00,6.750000,-0.009880,
2025-10-15T15:45:16.723765+00:00,6.755000,-0.011400,
2025-10-15T15:45:16.728765+00:00,6.760000,-0.019760,
2025-10-15T15:45:16.733765+00:00,6.765000,-0.030400,
2025-10-15T15:45:16.738765+00:00,6.770000,-0.039520,
2025-10-15T15:45:16.743765+00:00,6.775000,-0.041420,
2025-10-15T15:45:16.748765+00:00,6.780000,-0.042560,
2025-10-15T15:45:16.753765+00:00,6.785000,-0.044840,
2025-10-15T15:45:16.758765+00:00,6.790000,-0.047120,
2025-10-15T15:45:16.763765+00:00,6.795000,-0.044840,
2025-10-15T15:45:16.768765+00:00,6.800000,-0.038760,
2025-10-15T15:45:16.773765+00:00,6.805000,-0.031540,
2025-10-15T15:45:16.778765+00:00,6.810000,-0.028500,
2025-10-15T15:45:16.783765+00:00,6.815000,-0.029260,
2025-10-15T15:45:16.788765+00:00,6.820000,-0.030780,
2025-10-15T15:45:16.793765+00:00,6.825000,-0.030780,
2025-10-15T15:45:16.798765+00:00,6.830000,-0.032680,
2025-10-15T15:45:16.803765+00:00,6.835000,-0.036860,
2025-10-15T15:45:16.808765+00:00,6.840000,-0.036860,
2025-10-15T15:45:16.813765+00:00,6.845000,-0.023940,
2025-10-15T15:45:16.818765+00:00,6.850000,-0.012540,
2025-10-15T15:45:16.823765+00:00,6.855000,-0.026600,
2025-10-15T15:45:16.828765+00:00,6.860000,-0.057760,
2025-10-15T15:45:16.833765+00:00,6.865000,-0.053200,
2025-10-15T15:45:16.838765+00:00,6.870000,0.041040,
2025-10-15T15:45:16.843765+00:00,6.875000,0.237880,
2025-10-15T15:45:16.848765+00:00,6.880000,0.470440,
2025-10-15T15:45:16.853765+00:00,6.885000,0.594320,
2025-10-15T15:45:16.858765+00:00,6.890000,0.468920,
2025-10-15T15:45:16.863765+00:00,6.895000,0.109820,
2025-10-15T15:45:16.868765+00:00,6.900000,-0.275500,
2025-10-15T15:45:16.873765+00:00,6.905000,-0.463220,
2025-10-15T15:45:16.878765+00:00,6.910000,-0.419140,
2025-10-15T15:45:16.883765+00:00,6.915000,-0.289560,
2025-10-15T15:45:16.888765+00:00,6.920000,-0.206720,
2025-10-15T15:45:16.893765+00:00,6.925000,-0.177840,
2025-10-15T15:45:16.898765+00:00,6.930000,-0.157320,
2025-10-15T15:45:16.903765+00:00,6.935000,-0.129200,
2025-10-15T15:45:16.908765+00:00,6.940000,-0.103360,
2025-10-15T15:45:16.913765+00:00,6.945000,-0.082460,
2025-10-15T15:45:16.918765+00:00,6.950000,-0.064220,
2025-10-15T15:45:16.923765+00:00,6.955000,-0.053960,
2025-10-15T15:45:16.928765+00:00,6.960000,-0.046740,
2025-10-15T15:45:16.933765+00:00,6.965000,-0.041800,
2025-10-15T15:45:16.938765+00:00,6.970000,-0.034580,
2025-10-15T15:45:16.943765+00:00,6.975000,-0.030780,
2025-10-15T15:45:16.948765+00:00,6.980000,-0.028500,
2025-10-15T15:45:16.953765+00:00,6.985000,-0.028500,
2025-10-15T15:45:16.958765+00:00,6.990000,-0.025080,
2025-10-15T15:45:16.963765+00:00,6.995000,-0.022420,
2025-10-15T15:45:16.968765+00:00,7.000000,-0.019000,
2025-10-15T15:45:16.973765+00:00,7.005000,-0.017480,
2025-10-15T15:45:16.978765+00:00,7.010000,-0.016340,
2025-10-15T15:45:16.983765+00:00,7.015000,-0.015960,
2025-10-15T15:45:16.988765+00:00,7.020000,-0.016340,
2025-10-15T15:45:16.993765+00:00,7.025000,-0.015580,
2025-10-15T15:45:16.998765+00:00,7.030000,-0.015580,
2025-10-15T15:45:17.003765+00:00,7.035000,-0.014440,
2025-10-15T15:45:17.008765+00:00,7.040000,-0.011780,
2025-10-15T15:45:17.013765+00:00,7.045000,-0.009880,
2025-10-15T15:45:17.018765+00:00,7.050000,-0.006840,
2025-10-15T15:45:17.023765+00:00,7.055000,-0.003040,
2025-10-15T15:45:17.028765+00:00,7.060000,0.003040,
2025-10-15T15:45:17.033765+00:00,7.065000,0.006460,
2025-10-15T15:45:17.038765+00:00,7.070000,0.008740,
2025-10-15T15:45:17.043765+00:00,7.075000,0.009880,
2025-10-15T15:45:17.048765+00:00,7.080000,0.014060,
2025-10-15T15:45:17.053765+00:00,7.085000,0.019380,
2025-10-15T15:45:17.058765+00:00,7.090000,0.024700,
2025-10-15T15:45:17.063765+00:00,7.095000,0.025840,
2025-10-15T15:45:17.068765+00:00,7.100000,0.023560,
2025-10-15T15:45:17.073765+00:00,7.105000,0.019760,
2025-10-15T15:45:17.078765+00:00,7.110000,0.016720,
2025-10-15T15:45:17.083765+00:00,7.115000,0.013300,
2025-10-15T15:45:17.088765+00:00,7.120000,0.006840,
2025-10-15T15:45:17.093765+00:00,7.125000,-0.001900,
2025-10-15T15:45:17.098765+00:00,7.130000,-0.010260,
2025-10-15T15:45:17.103765+00:00,7.135000,-0.020140,
2025-10-15T15:45:17.108765+00:00,7.140000,-0.030780,
2025-10-15T15:45:17.113765+00:00,7.145000,-0.048260,
2025-10-15T15:45:17.118765+00:00,7.150000,-0.070300,
2025-10-15T15:45:17.123765+00:00,7.155000,-0.096140,
2025-10-15T15:45:17.128765+00:00,7.160000,-0.121600,
2025-10-15T15:45:17.133765+00:00,7.165000,-0.145160,
2025-10-15T15:45:17.138765+00:00,7.170000,-0.159220,
2025-10-15T15:45:17.143765+00:00,7.175000,-0.162260,
2025-10-15T15:45:17.148765+00:00,7.180000,-0.158460,
2025-10-15T15:45:17.153765+00:00,7.185000,-0.153140,
2025-10-15T15:45:17.158765+00:00,7.190000,-0.148960,
2025-10-15T15:45:17.163765+00:00,7.195000,-0.140220,
2025-10-15T15:45:17.168765+00:00,7.200000,-0.125780,
2025-10-15T15:45:17.173765+00:00,7.205000,-0.107920,
2025-10-15T15:45:17.178765+00:00,7.210000,-0.091960,
2025-10-15T15:45:17.183765+00:00,7.215000,-0.079420,
2025-10-15T15:45:17.188765+00:00,7.220000,-0.068780,
2025-10-15T15:45:17.193765+00:00,7.225000,-0.059660,
2025-10-15T15:45:17.198765+00:00,7.230000,-0.053960,
2025-10-15T15:45:17.203765+00:00,7.235000,-0.048640,
2025-10-15T15:45:17.208765+00:00,7.240000,-0.043700,
2025-10-15T15:45:17.213765+00:00,7.245000,-0.036480,
2025-10-15T15:45:17.218765+00:00,7.250000,-0.030780,
2025-10-15T15:45:17.223765+00:00,7.255000,-0.027740,
2025-10-15T15:45:17.228765+00:00,7.260000,-0.028120,
2025-10-15T15:45:17.233765+00:00,7.265000,-0.027740,
2025-10-15T15:45:17.238765+00:00,7.270000,-0.025460,
2025-10-15T15:45:17.243765+00:00,7.275000,-0.023940,
2025-10-15T15:45:17.248765+00:00,7.280000,-0.024700,
2025-10-15T15:45:17.253765+00:00,7.285000,-0.025840,
2025-10-15T15:45:17.258765+00:00,7.290000,-0.026980,
2025-10-15T15:45:17.263765+00:00,7.295000,-0.026600,
2025-10-15T15:45:17.268765+00:00,7.300000,-0.026220,
2025-10-15T15:45:17.273765+00:00,7.305000,-0.026980,
2025-10-15T15:45:17.278765+00:00,7.310000,-0.030020,
2025-10-15T15:45:17.283765+00:00,7.315000,-0.034960,
2025-10-15T15:45:17.288765+00:00,7.320000,-0.039140,
2025-10-15T15:45:17.293765+00:00,7.325000,-0.039520,
2025-10-15T15:45:17.298765+00:00,7.330000,-0.036480,
2025-10-15T15:45:17.303765+00:00,7.335000,-0.033820,
2025-10-15T15:45:17.308765+00:00,7.340000,-0.035340,
2025-10-15T15:45:17.313765+00:00,7.345000,-0.037620,
2025-10-15T15:45:17.318765+00:00,7.350000,-0.038380,
2025-10-15T15:45:17.323765+00:00,7.355000,-0.037620,
2025-10-15T15:45:17.328765+00:00,7.360000,-0.037240,
2025-10-15T15:45:17.333765+00:00,7.365000,-0.035720,
2025-10-15T15:45:17.338765+00:00,7.370000,-0.034580,
2025-10-15T15:45:17.343765+00:00,7.375000,-0.034200,
2025-10-15T15:45:17.348765+00:00,7.380000,-0.034960,
2025-10-15T15:45:17.353765+00:00,7.385000,-0.035340,
2025-10-15T15:45:17.358765+00:00,7.390000,-0.033440,
2025-10-15T15:45:17.363765+00:00,7.395000,-0.031920,
2025-10-15T15:45:17.368765+00:00,7.400000,-0.034200,
2025-10-15T15:45:17.373765+00:00,7.405000,-0.039140,
2025-10-15T15:45:17.378765+00:00,7.410000,-0.041040,
2025-10-15T15:45:17.383765+00:00,7.415000,-0.038000,
2025-10-15T15:45:17.388765+00:00,7.420000,-0.031540,
2025-10-15T15:45:17.393765+00:00,7.425000,-0.025460,
2025-10-15T15:45:17.398765+00:00,7.430000,-0.023560,
2025-10-15T15:45:17.403765+00:00,7.435000,-0.025840,
2025-10-15T15:45:17.408765+00:00,7.440000,-0.029640,
2025-10-15T15:45:17.413765+00:00,7.445000,-0.036100,
2025-10-15T15:45:17.418765+00:00,7.450000,-0.042940,
2025-10-15T15:45:17.423765+00:00,7.455000,-0.044840,
2025-10-15T15:45:17.428765+00:00,7.460000,-0.036100,
2025-10-15T15:45:17.433765+00:00,7.465000,-0.023180,
2025-10-15T15:45:17.438765+00:00,7.470000,-0.012540,
2025-10-15T15:45:17.443765+00:00,7.475000,-0.009880,
2025-10-15T15:45:17.448765+00:00,7.480000,-0.011400,
2025-10-15T15:45:17.453765+00:00,7.485000,-0.016720,
2025-10-15T15:45:17.458765+00:00,7.490000,-0.023560,
2025-10-15T15:45:17.463765+00:00,7.495000,-0.030780,
2025-10-15T15:45:17.468765+00:00,7.500000,-0.034200,
2025-10-15T15:45:17.473765+00:00,7.505000,-0.037620,
2025-10-15T15:45:17.478765+00:00,7.510000,-0.038000,
2025-10-15T15:45:17.483765+00:00,7.515000,-0.039140,
2025-10-15T15:45:17.488765+00:00,7.520000,-0.038000,
2025-10-15T15:45:17.493765+00:00,7.525000,-0.039520,
2025-10-15T15:45:17.498765+00:00,7.530000,-0.040280,
2025-10-15T15:45:17.503765+00:00,7.535000,-0.039900,
2025-10-15T15:45:17.508765+00:00,7.540000,-0.035720,
2025-10-15T15:45:17.513765+00:00,7.545000,-0.032680,
2025-10-15T15:45:17.518765+00:00,7.550000,-0.031160,
2025-10-15T15:45:17.523765+00:00,7.555000,-0.028500,
2025-10-15T15:45:17.528765+00:00,7.560000,-0.028120,
2025-10-15T15:45:17.533765+00:00,7.565000,-0.032300,
2025-10-15T15:45:17.538765+00:00,7.570000,-0.030400,
2025-10-15T15:45:17.543765+00:00,7.575000,-0.018240,
2025-10-15T15:45:17.548765+00:00,7.580000,-0.013680,
2025-10-15T15:45:17.553765+00:00,7.585000,-0.038380,
2025-10-15T15:45:17.558765+00:00,7.590000,-0.071060,
2025-10-15T15:45:17.563765+00:00,7.595000,-0.053200,
2025-10-15T15:45:17.568765+00:00,7.600000,0.062320,
2025-10-15T15:45:17.573765+00:00,7.605000,0.263340,
2025-10-15T15:45:17.578765+00:00,7.610000,0.485640,
2025-10-15T15:45:17.583765+00:00,7.615000,0.601540,
2025-10-15T15:45:17.588765+00:00,7.620000,0.477280,
2025-10-15T15:45:17.593765+00:00,7.625000,0.122360,
2025-10-15T15:45:17.598765+00:00,7.630000,-0.263720,
2025-10-15T15:45:17.603765+00:00,7.635000,-0.455620,
2025-10-15T15:45:17.608765+00:00,7.640000,-0.420280,
2025-10-15T15:45:17.613765+00:00,7.645000,-0.299440,
2025-10-15T15:45:17.618765+00:00,7.650000,-0.222300,
2025-10-15T15:45:17.623765+00:00,7.655000,-0.195320,
2025-10-15T15:45:17.628765+00:00,7.660000,-0.166060,
2025-10-15T15:45:17.633765+00:00,7.665000,-0.131100,
2025-10-15T15:45:17.638765+00:00,7.670000,-0.102600,
2025-10-15T15:45:17.643765+00:00,7.675000,-0.082460,
2025-10-15T15:45:17.648765+00:00,7.680000,-0.066500,
2025-10-15T15:45:17.653765+00:00,7.685000,-0.056620,
2025-10-15T15:45:17.658765+00:00,7.690000,-0.051300,
2025-10-15T15:45:17.663765+00:00,7.695000,-0.045220,
2025-10-15T15:45:17.668765+00:00,7.700000,-0.037240,
2025-10-15T15:45:17.673765+00:00,7.705000,-0.031540,
2025-10-15T15:45:17.678765+00:00,7.710000,-0.028120,
2025-10-15T15:45:17.683765+00:00,7.715000,-0.027360,
2025-10-15T15:45:17.688765+00:00,7.720000,-0.023560,
2025-10-15T15:45:17.693765+00:00,7.725000,-0.020520,
2025-10-15T15:45:17.698765+00:00,7.730000,-0.018240,
2025-10-15T15:45:17.703765+00:00,7.735000,-0.019380,
2025-10-15T15:45:17.708765+00:00,7.740000,-0.021660,
2025-10-15T15:45:17.713765+00:00,7.745000,-0.023180,
2025-10-15T15:45:17.718765+00:00,7.750000,-0.020900,
2025-10-15T15:45:17.723765+00:00,7.755000,-0.017860,
2025-10-15T15:45:17.728765+00:00,7.760000,-0.015960,
2025-10-15T15:45:17.733765+00:00,7.765000,-0.012920,
2025-10-15T15:45:17.738765+00:00,7.770000,-0.012160,
2025-10-15T15:45:17.743765+00:00,7.775000,-0.011780,
2025-10-15T15:45:17.748765+00:00,7.780000,-0.009880,
2025-10-15T15:45:17.753765+00:00,7.785000,-0.006840,
2025-10-15T15:45:17.758765+00:00,7.790000,-0.002660,
2025-10-15T15:45:17.763765+00:00,7.795000,0.003420,
2025-10-15T15:45:17.768765+00:00,7.800000,0.007980,
2025-10-15T15:45:17.773765+00:00,7.805000,0.012160,
2025-10-15T15:45:17.778765+00:00,7.810000,0.014060,
2025-10-15T15:45:17.783765+00:00,7.815000,0.018240,
2025-10-15T15:45:17.788765+00:00,7.820000,0.022420,
2025-10-15T15:45:17.793765+00:00,7.825000,0.027740,
2025-10-15T15:45:17.798765+00:00,7.830000,0.026980,
2025-10-15T15:45:17.803765+00:00,7.835000,0.023180,
2025-10-15T15:45:17.808765+00:00,7.840000,0.015960,
2025-10-15T15:45:17.813765+00:00,7.845000,0.008360,
2025-10-15T15:45:17.818765+00:00,7.850000,-0.000380,
2025-10-15T15:45:17.823765+00:00,7.855000,-0.006460,
2025-10-15T15:45:17.828765+00:00,7.860000,-0.012540,
2025-10-15T15:45:17.833765+00:00,7.865000,-0.020900,
2025-10-15T15:45:17.838765+00:00,7.870000,-0.031540,
2025-10-15T15:45:17.843765+00:00,7.875000,-0.049020,
2025-10-15T15:45:17.848765+00:00,7.880000,-0.071440,
2025-10-15T15:45:17.853765+00:00,7.885000,-0.095760,
2025-10-15T15:45:17.858765+00:00,7.890000,-0.119700,
2025-10-15T15:45:17.863765+00:00,7.895000,-0.139840,
2025-10-15T15:45:17.868765+00:00,7.900000,-0.154280,
2025-10-15T15:45:17.873765+00:00,7.905000,-0.159600,
2025-10-15T15:45:17.878765+00:00,7.910000,-0.160740,
2025-10-15T15:45:17.883765+00:00,7.915000,-0.155420,
2025-10-15T15:45:17.888765+00:00,7.920000,-0.145920,
2025-10-15T15:45:17.893765+00:00,7.925000,-0.134900,
2025-10-15T15:45:17.898765+00:00,7.930000,-0.120460,
2025-10-15T15:45:17.903765+00:00,7.935000,-0.105260,
2025-10-15T15:45:17.908765+00:00,7.940000,-0.091580,
2025-10-15T15:45:17.913765+00:00,7.945000,-0.080180,
2025-10-15T15:45:17.918765+00:00,7.950000,-0.071440,
2025-10-15T15:45:17.923765+00:00,7.955000,-0.065360,
2025-10-15T15:45:17.928765+00:00,7.960000,-0.057000,
2025-10-15T15:45:17.933765+00:00,7.965000,-0.050920,
2025-10-15T15:45:17.938765+00:00,7.970000,-0.044840,
2025-10-15T15:45:17.943765+00:00,7.975000,-0.039520,
2025-10-15T15:45:17.948765+00:00,7.980000,-0.033440,
2025-10-15T15:45:17.953765+00:00,7.985000,-0.028120,
2025-10-15T15:45:17.958765+00:00,7.990000,-0.024320,
2025-10-15T15:45:17.963765+00:00,7.995000,-0.025460,
2025-10-15T15:45:17.968765+00:00,8.000000,-0.026220,
2025-10-15T15:45:17.973765+00:00,8.005000,-0.026980,
2025-10-15T15:45:17.978765+00:00,8.010000,-0.025460,
2025-10-15T15:45:17.983765+00:00,8.015000,-0.025460,
2025-10-15T15:45:17.988765+00:00,8.020000,-0.027740,
2025-10-15T15:45:17.993765+00:00,8.025000,-0.030780,
2025-10-15T15:45:17.998765+00:00,8.030000,-0.031920,
2025-10-15T15:45:18.003765+00:00,8.035000,-0.031920,
2025-10-15T15:45:18.008765+00:00,8.040000,-0.033060,
2025-10-15T15:45:18.013765+00:00,8.045000,-0.033440,
2025-10-15T15:45:18.018765+00:00,8.050000,-0.032680,
2025-10-15T15:45:18.023765+00:00,8.055000,-0.032680,
2025-10-15T15:45:18.028765+00:00,8.060000,-0.033440,
2025-10-15T15:45:18.033765+00:00,8.065000,-0.036860,
2025-10-15T15:45:18.038765+00:00,8.070000,-0.039140,
2025-10-15T15:45:18.043765+00:00,8.075000,-0.039520,
2025-10-15T15:45:18.048765+00:00,8.080000,-0.037240,
2025-10-15T15:45:18.053765+00:00,8.085000,-0.035720,
2025-10-15T15:45:18.058765+00:00,8.090000,-0.033060,
2025-10-15T15:45:18.063765+00:00,8.095000,-0.031920,
2025-10-15T15:45:18.068765+00:00,8.100000,-0.031920,
2025-10-15T15:45:18.073765+00:00,8.105000,-0.031920,
2025-10-15T15:45:18.078765+00:00,8.110000,-0.033060,
2025-10-15T15:45:18.083765+00:00,8.115000,-0.033440,
2025-10-15T15:45:18.088765+00:00,8.120000,-0.033060,
2025-10-15T15:45:18.093765+00:00,8.125000,-0.032680,
2025-10-15T15:45:18.098765+00:00,8.130000,-0.031920,
2025-10-15T15:45:18.103765+00:00,8.135000,-0.028500,
2025-10-15T15:45:18.108765+00:00,8.140000,-0.028120,
2025-10-15T15:45:18.113765+00:00,8.145000,-0.029260,
2025-10-15T15:45:18.118765+00:00,8.150000,-0.030400,
2025-10-15T15:45:18.123765+00:00,8.155000,-0.033060,
2025-10-15T15:45:18.128765+00:00,8.160000,-0.038000,
2025-10-15T15:45:18.133765+00:00,8.165000,-0.043320,
2025-10-15T15:45:18.138765+00:00,8.170000,-0.044840,
2025-10-15T15:45:18.143765+00:00,8.175000,-0.037620,
2025-10-15T15:45:18.148765+00:00,8.180000,-0.025460,
2025-10-15T15:45:18.153765+00:00,8.185000,-0.014820,
2025-10-15T15:45:18.158765+00:00,8.190000,-0.010260,
2025-10-15T15:45:18.163765+00:00,8.195000,-0.009500,
2025-10-15T15:45:18.168765+00:00,8.200000,-0.011780,
2025-10-15T15:45:18.173765+00:00,8.205000,-0.017860,
2025-10-15T15:45:18.178765+00:00,8.210000,-0.026980,
2025-10-15T15:45:18.183765+00:00,8.215000,-0.034200,
2025-10-15T15:45:18.188765+00:00,8.220000,-0.038380,
2025-10-15T15:45:18.193765+00:00,8.225000,-0.039140,
2025-10-15T15:45:18.198765+00:00,8.230000,-0.039520,
2025-10-15T15:45:18.203765+00:00,8.235000,-0.040280,
2025-10-15T15:45:18.208765+00:00,8.240000,-0.040660,
2025-10-15T15:45:18.213765+00:00,8.245000,-0.038760,
2025-10-15T15:45:18.218765+00:00,8.250000,-0.039140,
2025-10-15T15:45:18.223765+00:00,8.255000,-0.038760,
2025-10-15T15:45:18.228765+00:00,8.260000,-0.038380,
2025-10-15T15:45:18.233765+00:00,8.265000,-0.036480,
2025-10-15T15:45:18.238765+00:00,8.270000,-0.034200,
2025-10-15T15:45:18.243765+00:00,8.275000,-0.031160,
2025-10-15T15:45:18.248765+00:00,8.280000,-0.032300,
2025-10-15T15:45:18.253765+00:00,8.285000,-0.033440,
2025-10-15T15:45:18.258765+00:00,8.290000,-0.023180,
2025-10-15T15:45:18.263765+00:00,8.295000,-0.011400,
2025-10-15T15:45:18.268765+00:00,8.300000,-0.023940,
2025-10-15T15:45:18.273765+00:00,8.305000,-0.061940,
2025-10-15T15:45:18.278765+00:00,8.310000,-0.072200,
2025-10-15T15:45:18.283765+00:00,8.315000,0.008360,
2025-10-15T15:45:18.288765+00:00,8.320000,0.197980,
2025-10-15T15:45:18.293765+00:00,8.325000,0.446120,
2025-10-15T15:45:18.298765+00:00,8.330000,0.627000,
2025-10-15T15:45:18.303765+00:00,8.335000,0.577220,
2025-10-15T15:45:18.308765+00:00,8.340000,0.255360,
2025-10-15T15:45:18.313765+00:00,8.345000,-0.171380,
2025-10-15T15:45:18.318765+00:00,8.350000,-0.446120,
2025-10-15T15:45:18.323765+00:00,8.355000,-0.465120,
2025-10-15T15:45:18.328765+00:00,8.360000,-0.342380,
2025-10-15T15:45:18.333765+00:00,8.365000,-0.243580,
2025-10-15T15:45:18.338765+00:00,8.370000,-0.209760,
2025-10-15T15:45:18.343765+00:00,8.375000,-0.189620,
2025-10-15T15:45:18.348765+00:00,8.380000,-0.156180,
2025-10-15T15:45:18.353765+00:00,8.385000,-0.126160,
2025-10-15T15:45:18.358765+00:00,8.390000,-0.102980,
2025-10-15T15:45:18.363765+00:00,8.395000,-0.085120,
2025-10-15T15:45:18.368765+00:00,8.400000,-0.071060,
2025-10-15T15:45:18.373765+00:00,8.405000,-0.058900,
2025-10-15T15:45:18.378765+00:00,8.410000,-0.048640,
2025-10-15T15:45:18.383765+00:00,8.415000,-0.041420,
2025-10-15T15:45:18.388765+00:00,8.420000,-0.036860,
2025-10-15T15:45:18.393765+00:00,8.425000,-0.033060,
2025-10-15T15:45:18.398765+00:00,8.430000,-0.028880,
2025-10-15T15:45:18.403765+00:00,8.435000,-0.028500,
2025-10-15T15:45:18.408765+00:00,8.440000,-0.030400,
2025-10-15T15:45:18.413765+00:00,8.445000,-0.031540,
2025-10-15T15:45:18.418765+00:00,8.450000,-0.027740,
2025-10-15T15:45:18.423765+00:00,8.455000,-0.019000,
2025-10-15T15:45:18.428765+00:00,8.460000,-0.012920,
2025-10-15T15:45:18.433765+00:00,8.465000,-0.012920,
2025-10-15T15:45:18.438765+00:00,8.470000,-0.015200,
2025-10-15T15:45:18.443765+00:00,8.475000,-0.015960,
2025-10-15T15:45:18.448765+00:00,8.480000,-0.015960,
2025-10-15T15:45:18.453765+00:00,8.485000,-0.014820,
2025-10-15T15:45:18.458765+00:00,8.490000,-0.012160,
2025-10-15T15:45:18.463765+00:00,8.495000,-0.008360,
2025-10-15T15:45:18.468765+00:00,8.500000,-0.003420,
2025-10-15T15:45:18.473765+00:00,8.505000,0.001520,
2025-10-15T15:45:18.478765+00:00,8.510000,0.006080,
2025-10-15T15:45:18.483765+00:00,8.515000,0.012920,
2025-10-15T15:45:18.488765+00:00,8.520000,0.019760,
2025-10-15T15:45:18.493765+00:00,8.525000,0.021280,
2025-10-15T15:45:18.498765+00:00,8.530000,0.019760,
2025-10-15T15:45:18.503765+00:00,8.535000,0.018240,
2025-10-15T15:45:18.508765+00:00,8.540000,0.022420,
2025-10-15T15:45:18.513765+00:00,8.545000,0.026600,
2025-10-15T15:45:18.518765+00:00,8.550000,0.025460,
2025-10-15T15:45:18.523765+00:00,8.555000,0.018620,
2025-10-15T15:45:18.528765+00:00,8.560000,0.012160,
2025-10-15T15:45:18.533765+00:00,8.565000,0.004940,
2025-10-15T15:45:18.538765+00:00,8.570000,0.000380,
2025-10-15T15:45:18.543765+00:00,8.575000,-0.005320,
2025-10-15T15:45:18.548765+00:00,8.580000,-0.011400,
2025-10-15T15:45:18.553765+00:00,8.585000,-0.022800,
2025-10-15T15:45:18.558765+00:00,8.590000,-0.043320,
2025-10-15T15:45:18.563765+00:00,8.595000,-0.070680,
2025-10-15T15:45:18.568765+00:00,8.600000,-0.100700,
2025-10-15T15:45:18.573765+00:00,8.605000,-0.126540,
2025-10-15T15:45:18.578765+00:00,8.610000,-0.145540,
2025-10-15T15:45:18.583765+00:00,8.615000,-0.156180,
2025-10-15T15:45:18.588765+00:00,8.620000,-0.161880,
2025-10-15T15:45:18.593765+00:00,8.625000,-0.164920,
2025-10-15T15:45:18.598765+00:00,8.630000,-0.167580,
2025-10-15T15:45:18.603765+00:00,8.635000,-0.161880,
2025-10-15T15:45:18.608765+00:00,8.640000,-0.149340,
2025-10-15T15:45:18.613765+00:00,8.645000,-0.129580,
2025-10-15T15:45:18.618765+00:00,8.650000,-0.111340,
2025-10-15T15:45:18.623765+00:00,8.655000,-0.097280,
2025-10-15T15:45:18.628765+00:00,8.660000,-0.086640,
2025-10-15T15:45:18.633765+00:00,8.665000,-0.076000,
2025-10-15T15:45:18.638765+00:00,8.670000,-0.065740,
2025-10-15T15:45:18.643765+00:00,8.675000,-0.058520,
2025-10-15T15:45:18.648765+00:00,8.680000,-0.051680,
2025-10-15T15:45:18.653765+00:00,8.685000,-0.045980,
2025-10-15T15:45:18.658765+00:00,8.690000,-0.043320,
2025-10-15T15:45:18.663765+00:00,8.695000,-0.041420,
2025-10-15T15:45:18.668765+00:00,8.700000,-0.038000,
2025-10-15T15:45:18.673765+00:00,8.705000,-0.030020,
2025-10-15T15:45:18.678765+00:00,8.710000,-0.020900,
2025-10-15T15:45:18.683765+00:00,8.715000,-0.019000,
2025-10-15T15:45:18.688765+00:00,8.720000,-0.023560,
2025-10-15T15:45:18.693765+00:00,8.725000,-0.029640,
2025-10-15T15:45:18.698765+00:00,8.730000,-0.031920,
2025-10-15T15:45:18.703765+00:00,8.735000,-0.031920,
2025-10-15T15:45:18.708765+00:00,8.740000,-0.030020,
2025-10-15T15:45:18.713765+00:00,8.745000,-0.030780,
2025-10-15T15:45:18.718765+00:00,8.750000,-0.031160,
2025-10-15T15:45:18.723765+00:00,8.755000,-0.030400,
2025-10-15T15:45:18.728765+00:00,8.760000,-0.028880,
2025-10-15T15:45:18.733765+00:00,8.765000,-0.030020,
2025-10-15T15:45:18.738765+00:00,8.770000,-0.032680,
2025-10-15T15:45:18.743765+00:00,8.775000,-0.034580,
2025-10-15T15:45:18.748765+00:00,8.780000,-0.033820,
2025-10-15T15:45:18.753765+00:00,8.785000,-0.033060,
2025-10-15T15:45:18.758765+00:00,8.790000,-0.033440,
2025-10-15T15:45:18.763765+00:00,8.795000,-0.036100,
2025-10-15T15:45:18.768765+00:00,8.800000,-0.038380,
2025-10-15T15:45:18.773765+00:00,8.805000,-0.039900,
2025-10-15T15:45:18.778765+00:00,8.810000,-0.040280,
2025-10-15T15:45:18.783765+00:00,8.815000,-0.040280,
2025-10-15T15:45:18.788765+00:00,8.820000,-0.037620,
2025-10-15T15:45:18.793765+00:00,8.825000,-0.034200,
2025-10-15T15:45:18.798765+00:00,8.830000,-0.033060,
2025-10-15T15:45:18.803765+00:00,8.835000,-0.033440,
2025-10-15T15:45:18.808765+00:00,8.840000,-0.034960,
2025-10-15T15:45:18.813765+00:00,8.845000,-0.033440,
2025-10-15T15:45:18.818765+00:00,8.850000,-0.029260,
2025-10-15T15:45:18.823765+00:00,8.855000,-0.028120,
2025-10-15T15:45:18.828765+00:00,8.860000,-0.031160,
2025-10-15T15:45:18.833765+00:00,8.865000,-0.037620,
2025-10-15T15:45:18.838765+00:00,8.870000,-0.039520,
2025-10-15T15:45:18.843765+00:00,8.875000,-0.038000,
2025-10-15T15:45:18.848765+00:00,8.880000,-0.036100,
2025-10-15T15:45:18.853765+00:00,8.885000,-0.036860,
2025-10-15T15:45:18.858765+00:00,8.890000,-0.033440,
2025-10-15T15:45:18.863765+00:00,8.895000,-0.025080,
2025-10-15T15:45:18.868765+00:00,8.900000,-0.013680,
2025-10-15T15:45:18.873765+00:00,8.905000,-0.006460,
2025-10-15T15:45:18.878765+00:00,8.910000,-0.003040,
2025-10-15T15:45:18.883765+00:00,8.915000,-0.006460,
2025-10-15T15:45:18.888765+00:00,8.920000,-0.014060,
2025-10-15T15:45:18.893765+00:00,8.925000,-0.026220,
2025-10-15T15:45:18.898765+00:00,8.930000,-0.036860,
2025-10-15T15:45:18.903765+00:00,8.935000,-0.043700,
2025-10-15T15:45:18.908765+00:00,8.940000,-0.045220,
2025-10-15T15:45:18.913765+00:00,8.945000,-0.045600,
2025-10-15T15:45:18.918765+00:00,8.950000,-0.042180,
2025-10-15T15:45:18.923765+00:00,8.955000,-0.040280,
2025-10-15T15:45:18.928765+00:00,8.960000,-0.039520,
2025-10-15T15:45:18.933765+00:00,8.965000,-0.040280,
2025-10-15T15:45:18.938765+00:00,8.970000,-0.039900,
2025-10-15T15:45:18.943765+00:00,8.975000,-0.038380,
2025-10-15T15:45:18.948765+00:00,8.980000,-0.038000,
2025-10-15T15:45:18.953765+00:00,8.985000,-0.035720,
2025-10-15T15:45:18.958765+00:00,8.990000,-0.027740,
2025-10-15T15:45:18.963765+00:00,8.995000,-0.020900,
2025-10-15T15:45:18.968765+00:00,9.000000,-0.020520,
2025-10-15T15:45:18.973765+00:00,9.005000,-0.023180,
2025-10-15T15:45:18.978765+00:00,9.010000,-0.018620,
2025-10-15T15:45:18.983765+00:00,9.015000,-0.020900,
2025-10-15T15:45:18.988765+00:00,9.020000,-0.047120,
2025-10-15T15:45:18.993765+00:00,9.025000,-0.079040,
2025-10-15T15:45:18.998765+00:00,9.030000,-0.060420,
2025-10-15T15:45:19.003765+00:00,9.035000,0.060800,
2025-10-15T15:45:19.008765+00:00,9.040000,0.274740,
2025-10-15T15:45:19.013765+00:00,9.045000,0.492100,
2025-10-15T15:45:19.018765+00:00,9.050000,0.560500,
2025-10-15T15:45:19.023765+00:00,9.055000,0.374300,
2025-10-15T15:45:19.028765+00:00,9.060000,-0.000760,
2025-10-15T15:45:19.033765+00:00,9.065000,-0.339720,
2025-10-15T15:45:19.038765+00:00,9.070000,-0.462840,
2025-10-15T15:45:19.043765+00:00,9.075000,-0.387600,
2025-10-15T15:45:19.048765+00:00,9.080000,-0.267140,
2025-10-15T15:45:19.053765+00:00,9.085000,-0.200260,
2025-10-15T15:45:19.058765+00:00,9.090000,-0.172900,
2025-10-15T15:45:19.063765+00:00,9.095000,-0.145540,
2025-10-15T15:45:19.068765+00:00,9.100000,-0.115520,
2025-10-15T15:45:19.073765+00:00,9.105000,-0.097660,
2025-10-15T15:45:19.078765+00:00,9.110000,-0.081320,
2025-10-15T15:45:19.083765+00:00,9.115000,-0.064220,
2025-10-15T15:45:19.088765+00:00,9.120000,-0.054340,
2025-10-15T15:45:19.093765+00:00,9.125000,-0.047880,
2025-10-15T15:45:19.098765+00:00,9.130000,-0.044080,
2025-10-15T15:45:19.103765+00:00,9.135000,-0.039140,
2025-10-15T15:45:19.108765+00:00,9.140000,-0.034960,
2025-10-15T15:45:19.113765+00:00,9.145000,-0.032300,
2025-10-15T15:45:19.118765+00:00,9.150000,-0.030400,
2025-10-15T15:45:19.123765+00:00,9.155000,-0.028500,
2025-10-15T15:45:19.128765+00:00,9.160000,-0.026980,
2025-10-15T15:45:19.133765+00:00,9.165000,-0.024700,
2025-10-15T15:45:19.138765+00:00,9.170000,-0.022800,
2025-10-15T15:45:19.143765+00:00,9.175000,-0.023940,
2025-10-15T15:45:19.148765+00:00,9.180000,-0.023180,
2025-10-15T15:45:19.153765+00:00,9.185000,-0.021280,
2025-10-15T15:45:19.158765+00:00,9.190000,-0.016340,
2025-10-15T15:45:19.163765+00:00,9.195000,-0.014060,
2025-10-15T15:45:19.168765+00:00,9.200000,-0.015200,
2025-10-15T15:45:19.173765+00:00,9.205000,-0.015580,
2025-10-15T15:45:19.178765+00:00,9.210000,-0.012920,
2025-10-15T15:45:19.183765+00:00,9.215000,-0.008740,
2025-10-15T15:45:19.188765+00:00,9.220000,-0.004940,
2025-10-15T15:45:19.193765+00:00,9.225000,-0.003040,
2025-10-15T15:45:19.198765+00:00,9.230000,-0.000380,
2025-10-15T15:45:19.203765+00:00,9.235000,0.003800,
2025-10-15T15:45:19.208765+00:00,9.240000,0.010260,
2025-10-15T15:45:19.213765+00:00,9.245000,0.015960,
2025-10-15T15:45:19.218765+00:00,9.250000,0.020140,
2025-10-15T15:45:19.223765+00:00,9.255000,0.024320,
2025-10-15T15:45:19.228765+00:00,9.260000,0.027740,
2025-10-15T15:45:19.233765+00:00,9.265000,0.027740,
2025-10-15T15:45:19.238765+00:00,9.270000,0.024700,
2025-10-15T15:45:19.243765+00:00,9.275000,0.017860,
2025-10-15T15:45:19.248765+00:00,9.280000,0.008360,
2025-10-15T15:45:19.253765+00:00,9.285000,0.001140,
2025-10-15T15:45:19.258765+00:00,9.290000,-0.001900,
2025-10-15T15:45:19.263765+00:00,9.295000,-0.004180,
2025-10-15T15:45:19.268765+00:00,9.300000,-0.012540,
2025-10-15T15:45:19.273765+00:00,9.305000,-0.029260,
2025-10-15T15:45:19.278765+00:00,9.310000,-0.053960,
2025-10-15T15:45:19.283765+00:00,9.315000,-0.080940,
2025-10-15T15:45:19.288765+00:00,9.320000,-0.107160,
2025-10-15T15:45:19.293765+00:00,9.325000,-0.127680,
2025-10-15T15:45:19.298765+00:00,9.330000,-0.144400,
2025-10-15T15:45:19.303765+00:00,9.335000,-0.157700,
2025-10-15T15:45:19.308765+00:00,9.340000,-0.166440,
2025-10-15T15:45:19.313765+00:00,9.345000,-0.166820,
2025-10-15T15:45:19.318765+00:00,9.350000,-0.158840,
2025-10-15T15:45:19.323765+00:00,9.355000,-0.144780,
2025-10-15T15:45:19.328765+00:00,9.360000,-0.132240,
2025-10-15T15:45:19.333765+00:00,9.365000,-0.123120,
2025-10-15T15:45:19.338765+00:00,9.370000,-0.111720,
2025-10-15T15:45:19.343765+00:00,9.375000,-0.099560,
2025-10-15T15:45:19.348765+00:00,9.380000,-0.084740,
2025-10-15T15:45:19.353765+00:00,9.385000,-0.071440,
2025-10-15T15:45:19.358765+00:00,9.390000,-0.060040,
2025-10-15T15:45:19.363765+00:00,9.395000,-0.050540,
2025-10-15T15:45:19.368765+00:00,9.400000,-0.045980,
2025-10-15T15:45:19.373765+00:00,9.405000,-0.045600,
2025-10-15T15:45:19.378765+00:00,9.410000,-0.045980,
2025-10-15T15:45:19.383765+00:00,9.415000,-0.045220,
2025-10-15T15:45:19.388765+00:00,9.420000,-0.041420,
2025-10-15T15:45:19.393765+00:00,9.425000,-0.037620,
2025-10-15T15:45:19.398765+00:00,9.430000,-0.033820,
2025-10-15T15:45:19.403765+00:00,9.435000,-0.031920,
2025-10-15T15:45:19.408765+00:00,9.440000,-0.031160,
2025-10-15T15:45:19.413765+00:00,9.445000,-0.030020,
2025-10-15T15:45:19.418765+00:00,9.450000,-0.028120,
2025-10-15T15:45:19.423765+00:00,9.455000,-0.025840,
2025-10-15T15:45:19.428765+00:00,9.460000,-0.025840,
2025-10-15T15:45:19.433765+00:00,9.465000,-0.025460,
2025-10-15T15:45:19.438765+00:00,9.470000,-0.027360,
2025-10-15T15:45:19.443765+00:00,9.475000,-0.029260,
2025-10-15T15:45:19.448765+00:00,9.480000,-0.031160,
2025-10-15T15:45:19.453765+00:00,9.485000,-0.031540,
2025-10-15T15:45:19.458765+00:00,9.490000,-0.032680,
2025-10-15T15:45:19.463765+00:00,9.495000,-0.033820,
2025-10-15T15:45:19.468765+00:00,9.500000,-0.034960,
2025-10-15T15:45:19.473765+00:00,9.505000,-0.036100,
2025-10-15T15:45:19.478765+00:00,9.510000,-0.037620,
2025-10-15T15:45:19.483765+00:00,9.515000,-0.036860,
2025-10-15T15:45:19.488765+00:00,9.520000,-0.035340,
2025-10-15T15:45:19.493765+00:00,9.525000,-0.030020,
2025-10-15T15:45:19.498765+00:00,9.530000,-0.025840,
2025-10-15T15:45:19.503765+00:00,9.535000,-0.024700,
2025-10-15T15:45:19.508765+00:00,9.540000,-0.028120,
2025-10-15T15:45:19.513765+00:00,9.545000,-0.029640,
2025-10-15T15:45:19.518765+00:00,9.550000,-0.031920,
2025-10-15T15:45:19.523765+00:00,9.555000,-0.034200,
2025-10-15T15:45:19.528765+00:00,9.560000,-0.036100,
2025-10-15T15:45:19.533765+00:00,9.565000,-0.034960,
2025-10-15T15:45:19.538765+00:00,9.570000,-0.032300,
2025-10-15T15:45:19.543765+00:00,9.575000,-0.031920,
2025-10-15T15:45:19.548765+00:00,9.580000,-0.035340,
2025-10-15T15:45:19.553765+00:00,9.585000,-0.040280,
2025-10-15T15:45:19.558765+00:00,9.590000,-0.037620,
2025-10-15T15:45:19.563765+00:00,9.595000,-0.030400,
2025-10-15T15:45:19.568765+00:00,9.600000,-0.021660,
2025-10-15T15:45:19.573765+00:00,9.605000,-0.013680,
2025-10-15T15:45:19.578765+00:00,9.610000,-0.008740,
2025-10-15T15:45:19.583765+00:00,9.615000,-0.008360,
2025-10-15T15:45:19.588765+00:00,9.620000,-0.014440,
2025-10-15T15:45:19.593765+00:00,9.625000,-0.026220,
2025-10-15T15:45:19.598765+00:00,9.630000,-0.035720,
2025-10-15T15:45:19.603765+00:00,9.635000,-0.038760,
2025-10-15T15:45:19.608765+00:00,9.640000,-0.038380,
2025-10-15T15:45:19.613765+00:00,9.645000,-0.037620,
2025-10-15T15:45:19.618765+00:00,9.650000,-0.038760,
2025-10-15T15:45:19.623765+00:00,9.655000,-0.036860,
2025-10-15T15:45:19.628765+00:00,9.660000,-0.036100,
2025-10-15T15:45:19.633765+00:00,9.665000,-0.036480,
2025-10-15T15:45:19.638765+00:00,9.670000,-0.038380,
2025-10-15T15:45:19.643765+00:00,9.675000,-0.038000,
2025-10-15T15:45:19.648765+00:00,9.680000,-0.035340,
2025-10-15T15:45:19.653765+00:00,9.685000,-0.029260,
2025-10-15T15:45:19.658765+00:00,9.690000,-0.023180,
2025-10-15T15:45:19.663765+00:00,9.695000,-0.022800,
2025-10-15T15:45:19.668765+00:00,9.700000,-0.029260,
2025-10-15T15:45:19.673765+00:00,9.705000,-0.027740,
2025-10-15T15:45:19.678765+00:00,9.710000,-0.014440,
2025-10-15T15:45:19.683765+00:00,9.715000,-0.013680,
2025-10-15T15:45:19.688765+00:00,9.720000,-0.041800,
2025-10-15T15:45:19.693765+00:00,9.725000,-0.068400,
2025-10-15T15:45:19.698765+00:00,9.730000,-0.034200,
2025-10-15T15:45:19.703765+00:00,9.735000,0.099560,
2025-10-15T15:45:19.708765+00:00,9.740000,0.311600,
2025-10-15T15:45:19.713765+00:00,9.745000,0.511860,
2025-10-15T15:45:19.718765+00:00,9.750000,0.559740,
2025-10-15T15:45:19.723765+00:00,9.755000,0.356060,
2025-10-15T15:45:19.728765+00:00,9.760000,-0.020520,
2025-10-15T15:45:19.733765+00:00,9.765000,-0.344660,
2025-10-15T15:45:19.738765+00:00,9.770000,-0.446120,
2025-10-15T15:45:19.743765+00:00,9.775000,-0.361760,
2025-10-15T15:45:19.748765+00:00,9.780000,-0.245480,
2025-10-15T15:45:19.753765+00:00,9.785000,-0.189240,
2025-10-15T15:45:19.758765+00:00,9.790000,-0.168720,
2025-10-15T15:45:19.763765+00:00,9.795000,-0.143640,
2025-10-15T15:45:19.768765+00:00,9.800000,-0.115520,
2025-10-15T15:45:19.773765+00:00,9.805000,-0.095760,
2025-10-15T15:45:19.778765+00:00,9.810000,-0.079800,
2025-10-15T15:45:19.783765+00:00,9.815000,-0.066120,
2025-10-15T15:45:19.788765+00:00,9.820000,-0.054720,
2025-10-15T15:45:19.793765+00:00,9.825000,-0.045220,
2025-10-15T15:45:19.798765+00:00,9.830000,-0.038380,
2025-10-15T15:45:19.803765+00:00,9.835000,-0.033820,
2025-10-15T15:45:19.808765+00:00,9.840000,-0.030020,
2025-10-15T15:45:19.813765+00:00,9.845000,-0.026220,
2025-10-15T15:45:19.818765+00:00,9.850000,-0.024700,
2025-10-15T15:45:19.823765+00:00,9.855000,-0.024700,
2025-10-15T15:45:19.828765+00:00,9.860000,-0.024700,
2025-10-15T15:45:19.833765+00:00,9.865000,-0.022420,
2025-10-15T15:45:19.838765+00:00,9.870000,-0.020900,
2025-10-15T15:45:19.843765+00:00,9.875000,-0.019760,
2025-10-15T15:45:19.848765+00:00,9.880000,-0.020520,
2025-10-15T15:45:19.853765+00:00,9.885000,-0.019380,
2025-10-15T15:45:19.858765+00:00,9.890000,-0.017480,
2025-10-15T15:45:19.863765+00:00,9.895000,-0.013300,
2025-10-15T15:45:19.868765+00:00,9.900000,-0.013300,
2025-10-15T15:45:19.873765+00:00,9.905000,-0.013300,
2025-10-15T15:45:19.878765+00:00,9.910000,-0.012540,
2025-10-15T15:45:19.883765+00:00,9.915000,-0.009120,
2025-10-15T15:45:19.888765+00:00,9.920000,-0.005320,
2025-10-15T15:45:19.893765+00:00,9.925000,0.000000,
2025-10-15T15:45:19.898765+00:00,9.930000,0.003040,
2025-10-15T15:45:19.903765+00:00,9.935000,0.008360,
2025-10-15T15:45:19.908765+00:00,9.940000,0.011780,
2025-10-15T15:45:19.913765+00:00,9.945000,0.016340,
2025-10-15T15:45:19.918765+00:00,9.950000,0.022420,
2025-10-15T15:45:19.923765+00:00,9.955000,0.029260,
2025-10-15T15:45:19.928765+00:00,9.960000,0.030780,
2025-10-15T15:45:19.933765+00:00,9.965000,0.029640,
2025-10-15T15:45:19.938765+00:00,9.970000,0.022420,
2025-10-15T15:45:19.943765+00:00,9.975000,0.014060,
2025-10-15T15:45:19.948765+00:00,9.980000,0.004940,
2025-10-15T15:45:19.953765+00:00,9.985000,-0.001140,
2025-10-15T15:45:19.958765+00:00,9.990000,-0.006080,
2025-10-15T15:45:19.963765+00:00,9.995000,-0.013300,
2025-10-15T15:45:19.968765+00:00,10.000000,-0.022800,
2025-10-15T15:45:19.973765+00:00,10.005000,-0.037240,
2025-10-15T15:45:19.978765+00:00,10.010000,-0.058520,
2025-10-15T15:45:19.983765+00:00,10.015000,-0.083980,
2025-10-15T15:45:19.988765+00:00,10.020000,-0.110200,
2025-10-15T15:45:19.993765+00:00,10.025000,-0.133760,
2025-10-15T15:45:19.998765+00:00,10.030000,-0.151240,
2025-10-15T15:45:20.003765+00:00,10.035000,-0.161120,
2025-10-15T15:45:20.008765+00:00,10.040000,-0.163020,
2025-10-15T15:45:20.013765+00:00,10.045000,-0.158460,
2025-10-15T15:45:20.018765+00:00,10.050000,-0.147820,
2025-10-15T15:45:20.023765+00:00,10.055000,-0.137180,
2025-10-15T15:45:20.028765+00:00,10.060000,-0.126160,
2025-10-15T15:45:20.033765+00:00,10.065000,-0.115140,
2025-10-15T15:45:20.038765+00:00,10.070000,-0.100320,
2025-10-15T15:45:20.043765+00:00,10.075000,-0.085120,
2025-10-15T15:45:20.048765+00:00,10.080000,-0.071820,
2025-10-15T15:45:20.053765+00:00,10.085000,-0.063460,
2025-10-15T15:45:20.058765+00:00,10.090000,-0.057000,
2025-10-15T15:45:20.063765+00:00,10.095000,-0.051300,
2025-10-15T15:45:20.068765+00:00,10.100000,-0.046360,
2025-10-15T15:45:20.073765+00:00,10.105000,-0.041040,
2025-10-15T15:45:20.078765+00:00,10.110000,-0.035720,
2025-10-15T15:45:20.083765+00:00,10.115000,-0.032300,
2025-10-15T15:45:20.088765+00:00,10.120000,-0.029260,
2025-10-15T15:45:20.093765+00:00,10.125000,-0.028120,
2025-10-15T15:45:20.098765+00:00,10.130000,-0.025460,
2025-10-15T15:45:20.103765+00:00,10.135000,-0.023180,
2025-10-15T15:45:20.108765+00:00,10.140000,-0.023180,
2025-10-15T15:45:20.113765+00:00,10.145000,-0.022420,
2025-10-15T15:45:20.118765+00:00,10.150000,-0.022800,
2025-10-15T15:45:20.123765+00:00,10.155000,-0.023180,
2025-10-15T15:45:20.128765+00:00,10.160000,-0.023940,
2025-10-15T15:45:20.133765+00:00,10.165000,-0.026220,
2025-10-15T15:45:20.138765+00:00,10.170000,-0.029260,
2025-10-15T15:45:20.143765+00:00,10.175000,-0.031160,
2025-10-15T15:45:20.148765+00:00,10.180000,-0.032300,
2025-10-15T15:45:20.153765+00:00,10.185000,-0.033440,
2025-10-15T15:45:20.158765+00:00,10.190000,-0.033440,
2025-10-15T15:45:20.163765+00:00,10.195000,-0.032300,
2025-10-15T15:45:20.168765+00:00,10.200000,-0.032300,
2025-10-15T15:45:20.173765+00:00,10.205000,-0.034200,
2025-10-15T15:45:20.178765+00:00,10.210000,-0.035340,
2025-10-15T15:45:20.183765+00:00,10.215000,-0.035340,
2025-10-15T15:45:20.188765+00:00,10.220000,-0.033440,
2025-10-15T15:45:20.193765+00:00,10.225000,-0.033060,
2025-10-15T15:45:20.198765+00:00,10.230000,-0.034580,
2025-10-15T15:45:20.203765+00:00,10.235000,-0.035340,
2025-10-15T15:45:20.208765+00:00,10.240000,-0.033820,
2025-10-15T15:45:20.213765+00:00,10.245000,-0.031920,
2025-10-15T15:45:20.218765+00:00,10.250000,-0.031540,
2025-10-15T15:45:20.223765+00:00,10.255000,-0.033440,
2025-10-15T15:45:20.228765+00:00,10.260000,-0.034200,
2025-10-15T15:45:20.233765+00:00,10.265000,-0.034200,
2025-10-15T15:45:20.238765+00:00,10.270000,-0.032300,
2025-10-15T15:45:20.243765+00:00,10.275000,-0.031160,
2025-10-15T15:45:20.248765+00:00,10.280000,-0.031920,
2025-10-15T15:45:20.253765+00:00,10.285000,-0.038000,
2025-10-15T15:45:20.258765+00:00,10.290000,-0.043320,
2025-10-15T15:45:20.263765+00:00,10.295000,-0.041800,
2025-10-15T15:45:20.268765+00:00,10.300000,-0.030780,
2025-10-15T15:45:20.273765+00:00,10.305000,-0.018620,
2025-10-15T15:45:20.278765+00:00,10.310000,-0.009880,
2025-10-15T15:45:20.283765+00:00,10.315000,-0.008360,
2025-10-15T15:45:20.288765+00:00,10.320000,-0.009120,
2025-10-15T15:45:20.293765+00:00,10.325000,-0.015580,
2025-10-15T15:45:20.298765+00:00,10.330000,-0.024700,
2025-10-15T15:45:20.303765+00:00,10.335000,-0.033060,
2025-10-15T15:45:20.308765+00:00,10.340000,-0.037240,
2025-10-15T15:45:20.313765+00:00,10.345000,-0.038380,
2025-10-15T15:45:20.318765+00:00,10.350000,-0.038760,
2025-10-15T15:45:20.323765+00:00,10.355000,-0.041040,
2025-10-15T15:45:20.328765+00:00,10.360000,-0.041800,
2025-10-15T15:45:20.333765+00:00,10.365000,-0.041420,
2025-10-15T15:45:20.338765+00:00,10.370000,-0.040280,
2025-10-15T15:45:20.343765+00:00,10.375000,-0.038380,
2025-10-15T15:45:20.348765+00:00,10.380000,-0.035720,
2025-10-15T15:45:20.353765+00:00,10.385000,-0.034580,
2025-10-15T15:45:20.358765+00:00,10.390000,-0.031160,
2025-10-15T15:45:20.363765+00:00,10.395000,-0.026980,
2025-10-15T15:45:20.368765+00:00,10.400000,-0.026980,
2025-10-15T15:45:20.373765+00:00,10.405000,-0.030400,
2025-10-15T15:45:20.378765+00:00,10.410000,-0.025460,
2025-10-15T15:45:20.383765+00:00,10.415000,-0.014060,
2025-10-15T15:45:20.388765+00:00,10.420000,-0.017100,
2025-10-15T15:45:20.393765+00:00,10.425000,-0.049020,
2025-10-15T15:45:20.398765+00:00,10.430000,-0.072580,
2025-10-15T15:45:20.403765+00:00,10.435000,-0.026220,
2025-10-15T15:45:20.408765+00:00,10.440000,0.121220,
2025-10-15T15:45:20.413765+00:00,10.445000,0.346180,
2025-10-15T15:45:20.418765+00:00,10.450000,0.558980,
2025-10-15T15:45:20.423765+00:00,10.455000,0.609140,
2025-10-15T15:45:20.428765+00:00,10.460000,0.393300,
2025-10-15T15:45:20.433765+00:00,10.465000,-0.009120,
2025-10-15T15:45:20.438765+00:00,10.470000,-0.358720,
2025-10-15T15:45:20.443765+00:00,10.475000,-0.472340,
2025-10-15T15:45:20.448765+00:00,10.480000,-0.387220,
2025-10-15T15:45:20.453765+00:00,10.485000,-0.267900,
2025-10-15T15:45:20.458765+00:00,10.490000,-0.209380,
2025-10-15T15:45:20.463765+00:00,10.495000,-0.188480,
2025-10-15T15:45:20.468765+00:00,10.500000,-0.160740,
2025-10-15T15:45:20.473765+00:00,10.505000,-0.128440,
2025-10-15T15:45:20.478765+00:00,10.510000,-0.102980,
2025-10-15T15:45:20.483765+00:00,10.515000,-0.085120,
2025-10-15T15:45:20.488765+00:00,10.520000,-0.071060,
2025-10-15T15:45:20.493765+00:00,10.525000,-0.061560,
2025-10-15T15:45:20.498765+00:00,10.530000,-0.050540,
2025-10-15T15:45:20.503765+00:00,10.535000,-0.042560,
2025-10-15T15:45:20.508765+00:00,10.540000,-0.035720,
2025-10-15T15:45:20.513765+00:00,10.545000,-0.032680,
2025-10-15T15:45:20.518765+00:00,10.550000,-0.030020,
2025-10-15T15:45:20.523765+00:00,10.555000,-0.026600,
2025-10-15T15:45:20.528765+00:00,10.560000,-0.024320,
2025-10-15T15:45:20.533765+00:00,10.565000,-0.022040,
2025-10-15T15:45:20.538765+00:00,10.570000,-0.021660,
2025-10-15T15:45:20.543765+00:00,10.575000,-0.022040,
2025-10-15T15:45:20.548765+00:00,10.580000,-0.023560,
2025-10-15T15:45:20.553765+00:00,10.585000,-0.023940,
2025-10-15T15:45:20.558765+00:00,10.590000,-0.021660,
2025-10-15T15:45:20.563765+00:00,10.595000,-0.019000,
2025-10-15T15:45:20.568765+00:00,10.600000,-0.016340,
2025-10-15T15:45:20.573765+00:00,10.605000,-0.013680,
2025-10-15T15:45:20.578765+00:00,10.610000,-0.010640,
2025-10-15T15:45:20.583765+00:00,10.615000,-0.006460,
2025-10-15T15:45:20.588765+00:00,10.620000,-0.003800,
2025-10-15T15:45:20.593765+00:00,10.625000,-0.001520,
2025-10-15T15:45:20.598765+00:00,10.630000,0.000760,
2025-10-15T15:45:20.603765+00:00,10.635000,0.004940,
2025-10-15T15:45:20.608765+00:00,10.640000,0.009880,
2025-10-15T15:45:20.613765+00:00,10.645000,0.014440,
2025-10-15T15:45:20.618765+00:00,10.650000,0.015580,
2025-10-15T15:45:20.623765+00:00,10.655000,0.016720,
2025-10-15T15:45:20.628765+00:00,10.660000,0.020520,
2025-10-15T15:45:20.633765+00:00,10.665000,0.025080,
2025-10-15T15:45:20.638765+00:00,10.670000,0.025080,
2025-10-15T15:45:20.643765+00:00,10.675000,0.021280,
2025-10-15T15:45:20.648765+00:00,10.680000,0.014060,
2025-10-15T15:45:20.653765+00:00,10.685000,0.006840,
2025-10-15T15:45:20.658765+00:00,10.690000,0.000000,
2025-10-15T15:45:20.663765+00:00,10.695000,-0.007220,
2025-10-15T15:45:20.668765+00:00,10.700000,-0.017100,
2025-10-15T15:45:20.673765+00:00,10.705000,-0.027360,
2025-10-15T15:45:20.678765+00:00,10.710000,-0.039520,
2025-10-15T15:45:20.683765+00:00,10.715000,-0.056240,
2025-10-15T15:45:20.688765+00:00,10.720000,-0.081320,
2025-10-15T15:45:20.693765+00:00,10.725000,-0.112100,
2025-10-15T15:45:20.698765+00:00,10.730000,-0.139460,
2025-10-15T15:45:20.703765+00:00,10.735000,-0.158840,
2025-10-15T15:45:20.708765+00:00,10.740000,-0.163780,
2025-10-15T15:45:20.713765+00:00,10.745000,-0.163400,
2025-10-15T15:45:20.718765+00:00,10.750000,-0.161500,
2025-10-15T15:45:20.723765+00:00,10.755000,-0.159220,
2025-10-15T15:45:20.728765+00:00,10.760000,-0.150480,
2025-10-15T15:45:20.733765+00:00,10.765000,-0.136040,
2025-10-15T15:45:20.738765+00:00,10.770000,-0.119320,
2025-10-15T15:45:20.743765+00:00,10.775000,-0.102980,
2025-10-15T15:45:20.748765+00:00,10.780000,-0.088920,
2025-10-15T15:45:20.753765+00:00,10.785000,-0.076380,
2025-10-15T15:45:20.758765+00:00,10.790000,-0.065740,
2025-10-15T15:45:20.763765+00:00,10.795000,-0.058140,
2025-10-15T15:45:20.768765+00:00,10.800000,-0.053580,
2025-10-15T15:45:20.773765+00:00,10.805000,-0.050540,
2025-10-15T15:45:20.778765+00:00,10.810000,-0.045600,
2025-10-15T15:45:20.783765+00:00,10.815000,-0.040660,
2025-10-15T15:45:20.788765+00:00,10.820000,-0.034580,
2025-10-15T15:45:20.793765+00:00,10.825000,-0.028880,
2025-10-15T15:45:20.798765+00:00,10.830000,-0.028500,
2025-10-15T15:45:20.803765+00:00,10.835000,-0.028880,
2025-10-15T15:45:20.808765+00:00,10.840000,-0.028120,
2025-10-15T15:45:20.813765+00:00,10.845000,-0.028120,
2025-10-15T15:45:20.818765+00:00,10.850000,-0.029640,
2025-10-15T15:45:20.823765+00:00,10.855000,-0.033820,
2025-10-15T15:45:20.828765+00:00,10.860000,-0.034580,
2025-10-15T15:45:20.833765+00:00,10.865000,-0.033440,
2025-10-15T15:45:20.838765+00:00,10.870000,-0.032680,
2025-10-15T15:45:20.843765+00:00,10.875000,-0.035340,
2025-10-15T15:45:20.848765+00:00,10.880000,-0.037620,
2025-10-15T15:45:20.853765+00:00,10.885000,-0.036860,
2025-10-15T15:45:20.858765+00:00,10.890000,-0.033820,
2025-10-15T15:45:20.863765+00:00,10.895000,-0.032680,
2025-10-15T15:45:20.868765+00:00,10.900000,-0.033440,
2025-10-15T15:45:20.873765+00:00,10.905000,-0.034200,
2025-10-15T15:45:20.878765+00:00,10.910000,-0.033440,
2025-10-15T15:45:20.883765+00:00,10.915000,-0.034200,
2025-10-15T15:45:20.888765+00:00,10.920000,-0.037240,
2025-10-15T15:45:20.893765+00:00,10.925000,-0.041420,
2025-10-15T15:45:20.898765+00:00,10.930000,-0.043700,
2025-10-15T15:45:20.903765+00:00,10.935000,-0.041800,
2025-10-15T15:45:20.908765+00:00,10.940000,-0.038760,
2025-10-15T15:45:20.913765+00:00,10.945000,-0.035340,
2025-10-15T15:45:20.918765+00:00,10.950000,-0.033060,
2025-10-15T15:45:20.923765+00:00,10.955000,-0.035340,
2025-10-15T15:45:20.928765+00:00,10.960000,-0.038380,
2025-10-15T15:45:20.933765+00:00,10.965000,-0.038760,
2025-10-15T15:45:20.938765+00:00,10.970000,-0.034200,
2025-10-15T15:45:20.943765+00:00,10.975000,-0.029640,
2025-10-15T15:45:20.948765+00:00,10.980000,-0.031160,
2025-10-15T15:45:20.953765+00:00,10.985000,-0.035720,
2025-10-15T15:45:20.958765+00:00,10.990000,-0.039900,
2025-10-15T15:45:20.963765+00:00,10.995000,-0.038000,
2025-10-15T15:45:20.968765+00:00,11.000000,-0.030020,
2025-10-15T15:45:20.973765+00:00,11.005000,-0.019000,
2025-10-15T15:45:20.978765+00:00,11.010000,-0.010260,
2025-10-15T15:45:20.983765+00:00,11.015000,-0.006080,
2025-10-15T15:45:20.988765+00:00,11.020000,-0.011020,
2025-10-15T15:45:20.993765+00:00,11.025000,-0.020900,
2025-10-15T15:45:20.998765+00:00,11.030000,-0.030780,
2025-10-15T15:45:21.003765+00:00,11.035000,-0.037240,
2025-10-15T15:45:21.008765+00:00,11.040000,-0.041420,
2025-10-15T15:45:21.013765+00:00,11.045000,-0.042940,
2025-10-15T15:45:21.018765+00:00,11.050000,-0.043700,
2025-10-15T15:45:21.023765+00:00,11.055000,-0.040660,
2025-10-15T15:45:21.028765+00:00,11.060000,-0.039520,
2025-10-15T15:45:21.033765+00:00,11.065000,-0.040280,
2025-10-15T15:45:21.038765+00:00,11.070000,-0.040280,
2025-10-15T15:45:21.043765+00:00,11.075000,-0.036480,
2025-10-15T15:45:21.048765+00:00,11.080000,-0.030020,
2025-10-15T15:45:21.053765+00:00,11.085000,-0.029260,
2025-10-15T15:45:21.058765+00:00,11.090000,-0.031160,
2025-10-15T15:45:21.063765+00:00,11.095000,-0.034960,
2025-10-15T15:45:21.068765+00:00,11.100000,-0.038000,
2025-10-15T15:45:21.073765+00:00,11.105000,-0.033440,
2025-10-15T15:45:21.078765+00:00,11.110000,-0.019000,
2025-10-15T15:45:21.083765+00:00,11.115000,-0.009880,
2025-10-15T15:45:21.088765+00:00,11.120000,-0.032300,
2025-10-15T15:45:21.093765+00:00,11.125000,-0.072960,
2025-10-15T15:45:21.098765+00:00,11.130000,-0.071820,
2025-10-15T15:45:21.103765+00:00,11.135000,0.025840,
2025-10-15T15:45:21.108765+00:00,11.140000,0.229520,
2025-10-15T15:45:21.113765+00:00,11.145000,0.476900,
2025-10-15T15:45:21.118765+00:00,11.150000,0.633460,
2025-10-15T15:45:21.123765+00:00,11.155000,0.548340,
2025-10-15T15:45:21.128765+00:00,11.160000,0.204060,
2025-10-15T15:45:21.133765+00:00,11.165000,-0.214700,
2025-10-15T15:45:21.138765+00:00,11.170000,-0.462840,
2025-10-15T15:45:21.143765+00:00,11.175000,-0.462080,
2025-10-15T15:45:21.148765+00:00,11.180000,-0.336680,
2025-10-15T15:45:21.153765+00:00,11.185000,-0.240540,
2025-10-15T15:45:21.158765+00:00,11.190000,-0.202160,
2025-10-15T15:45:21.163765+00:00,11.195000,-0.178600,
2025-10-15T15:45:21.168765+00:00,11.200000,-0.148580,
2025-10-15T15:45:21.173765+00:00,11.205000,-0.121980,
2025-10-15T15:45:21.178765+00:00,11.210000,-0.099560,
2025-10-15T15:45:21.183765+00:00,11.215000,-0.080560,
2025-10-15T15:45:21.188765+00:00,11.220000,-0.063080,
2025-10-15T15:45:21.193765+00:00,11.225000,-0.050920,
2025-10-15T15:45:21.198765+00:00,11.230000,-0.041420,
2025-10-15T15:45:21.203765+00:00,11.235000,-0.037620,
2025-10-15T15:45:21.208765+00:00,11.240000,-0.037240,
2025-10-15T15:45:21.213765+00:00,11.245000,-0.034580,
2025-10-15T15:45:21.218765+00:00,11.250000,-0.028880,
2025-10-15T15:45:21.223765+00:00,11.255000,-0.022420,
2025-10-15T15:45:21.228765+00:00,11.260000,-0.020520,
2025-10-15T15:45:21.233765+00:00,11.265000,-0.024320,
2025-10-15T15:45:21.238765+00:00,11.270000,-0.026220,
2025-10-15T15:45:21.243765+00:00,11.275000,-0.022040,
2025-10-15T15:45:21.248765+00:00,11.280000,-0.014060,
2025-10-15T15:45:21.253765+00:00,11.285000,-0.007980,
2025-10-15T15:45:21.258765+00:00,11.290000,-0.009880,
2025-10-15T15:45:21.263765+00:00,11.295000,-0.016720,
2025-10-15T15:45:21.268765+00:00,11.300000,-0.021280,
2025-10-15T15:45:21.273765+00:00,11.305000,-0.019760,
2025-10-15T15:45:21.278765+00:00,11.310000,-0.014060,
