timestamp_utc,t_rel_sec,ecg_mV,event
2025-10-14T04:02:29.953638+00:00,0.000000,0.000000,
2025-10-14T04:02:29.958638+00:00,0.005000,0.000000,
2025-10-14T04:02:29.963638+00:00,0.010000,-0.001140,
2025-10-14T04:02:29.968638+00:00,0.015000,-0.000380,
2025-10-14T04:02:29.973638+00:00,0.020000,0.019000,
2025-10-14T04:02:29.978638+00:00,0.025000,-0.069540,
2025-10-14T04:02:29.983638+00:00,0.030000,-0.034580,
2025-10-14T04:02:29.988638+00:00,0.035000,0.461320,
2025-10-14T04:02:29.993638+00:00,0.040000,-0.396340,
2025-10-14T04:02:29.998638+00:00,0.045000,-1.653000,
2025-10-14T04:02:30.003638+00:00,0.050000,1.578140,
2025-10-14T04:02:30.008638+00:00,0.055000,4.550500,
2025-10-14T04:02:30.013638+00:00,0.060000,-2.599200,
2025-10-14T04:02:30.018638+00:00,0.065000,-14.117000,
2025-10-14T04:02:30.023638+00:00,0.070000,-10.966800,
2025-10-14T04:02:30.028638+00:00,0.075000,14.306620,
2025-10-14T04:02:30.033638+00:00,0.080000,44.194760,
2025-10-14T04:02:30.038638+00:00,0.085000,48.861160,
2025-10-14T04:02:30.043638+00:00,0.090000,47.726480,
2025-10-14T04:02:30.048638+00:00,0.095000,37.239620,
2025-10-14T04:02:30.053638+00:00,0.100000,35.289460,
2025-10-14T04:02:30.058638+00:00,0.105000,36.281640,
2025-10-14T04:02:30.063638+00:00,0.110000,35.686940,
2025-10-14T04:02:30.068638+00:00,0.115000,35.026880,
2025-10-14T04:02:30.073638+00:00,0.120000,34.442820,
2025-10-14T04:02:30.078638+00:00,0.125000,33.795680,
2025-10-14T04:02:30.083638+00:00,0.130000,33.314600,
2025-10-14T04:02:30.088638+00:00,0.135000,32.803880,
2025-10-14T04:02:30.093638+00:00,0.140000,32.276820,
2025-10-14T04:02:30.098638+00:00,0.145000,31.772560,
2025-10-14T04:02:30.103638+00:00,0.150000,31.276660,
2025-10-14T04:02:30.108638+00:00,0.155000,30.787600,
2025-10-14T04:02:30.113638+00:00,0.160000,30.308420,
2025-10-14T04:02:30.118638+00:00,0.165000,29.833420,
2025-10-14T04:02:30.123638+00:00,0.170000,29.364500,
2025-10-14T04:02:30.128638+00:00,0.175000,28.903180,
2025-10-14T04:02:30.133638+00:00,0.180000,28.452120,
2025-10-14T04:02:30.138638+00:00,0.185000,28.009800,
2025-10-14T04:02:30.143638+00:00,0.190000,27.572040,
2025-10-14T04:02:30.148638+00:00,0.195000,27.137700,
2025-10-14T04:02:30.153638+00:00,0.200000,26.710960,
2025-10-14T04:02:30.158638+00:00,0.205000,26.294860,
2025-10-14T04:02:30.163638+00:00,0.210000,25.885220,
2025-10-14T04:02:30.168638+00:00,0.215000,25.479760,
2025-10-14T04:02:30.173638+00:00,0.220000,25.079240,
2025-10-14T04:02:30.178638+00:00,0.225000,24.686320,
2025-10-14T04:02:30.183638+00:00,0.230000,24.299860,
2025-10-14T04:02:30.188638+00:00,0.235000,23.920620,
2025-10-14T04:02:30.193638+00:00,0.240000,23.547080,
2025-10-14T04:02:30.198638+00:00,0.245000,23.179240,
2025-10-14T04:02:30.203638+00:00,0.250000,22.818240,
2025-10-14T04:02:30.208638+00:00,0.255000,22.461040,
2025-10-14T04:02:30.213638+00:00,0.260000,22.109540,
2025-10-14T04:02:30.218638+00:00,0.265000,21.764120,
2025-10-14T04:02:30.223638+00:00,0.270000,21.425540,
2025-10-14T04:02:30.228638+00:00,0.275000,21.089240,
2025-10-14T04:02:30.233638+00:00,0.280000,20.755980,
2025-10-14T04:02:30.238638+00:00,0.285000,20.427660,
2025-10-14T04:02:30.243638+00:00,0.290000,20.107700,
2025-10-14T04:02:30.248638+00:00,0.295000,19.794200,
2025-10-14T04:02:30.253638+00:00,0.300000,19.485640,
2025-10-14T04:02:30.258638+00:00,0.305000,19.182780,
2025-10-14T04:02:30.263638+00:00,0.310000,18.882580,
2025-10-14T04:02:30.268638+00:00,0.315000,18.585420,
2025-10-14T04:02:30.273638+00:00,0.320000,18.294720,
2025-10-14T04:02:30.278638+00:00,0.325000,18.010100,
2025-10-14T04:02:30.283638+00:00,0.330000,17.729660,
2025-10-14T04:02:30.288638+00:00,0.335000,17.453020,
2025-10-14T04:02:30.293638+00:00,0.340000,17.179040,
2025-10-14T04:02:30.298638+00:00,0.345000,16.910760,
2025-10-14T04:02:30.303638+00:00,0.350000,16.646660,
2025-10-14T04:02:30.308638+00:00,0.355000,16.386360,
2025-10-14T04:02:30.313638+00:00,0.360000,16.126820,
2025-10-14T04:02:30.318638+00:00,0.365000,15.874500,
2025-10-14T04:02:30.323638+00:00,0.370000,15.628260,
2025-10-14T04:02:30.328638+00:00,0.375000,15.385820,
2025-10-14T04:02:30.333638+00:00,0.380000,15.143760,
2025-10-14T04:02:30.338638+00:00,0.385000,14.902840,
2025-10-14T04:02:30.343638+00:00,0.390000,14.668760,
2025-10-14T04:02:30.348638+00:00,0.395000,14.439620,
2025-10-14T04:02:30.353638+00:00,0.400000,14.212760,
2025-10-14T04:02:30.358638+00:00,0.405000,13.988940,
2025-10-14T04:02:30.363638+00:00,0.410000,13.768920,
2025-10-14T04:02:30.368638+00:00,0.415000,13.554600,
2025-10-14T04:02:30.373638+00:00,0.420000,13.343320,
2025-10-14T04:02:30.378638+00:00,0.425000,13.135460,
2025-10-14T04:02:30.383638+00:00,0.430000,12.931020,
2025-10-14T04:02:30.388638+00:00,0.435000,12.727720,
2025-10-14T04:02:30.393638+00:00,0.440000,12.525560,
2025-10-14T04:02:30.398638+00:00,0.445000,12.327580,
2025-10-14T04:02:30.403638+00:00,0.450000,12.135680,
2025-10-14T04:02:30.408638+00:00,0.455000,11.947580,
2025-10-14T04:02:30.413638+00:00,0.460000,11.760240,
2025-10-14T04:02:30.418638+00:00,0.465000,11.574040,
2025-10-14T04:02:30.423638+00:00,0.470000,11.391640,
2025-10-14T04:02:30.428638+00:00,0.475000,11.212660,
2025-10-14T04:02:30.433638+00:00,0.480000,11.036720,
2025-10-14T04:02:30.438638+00:00,0.485000,10.863820,
2025-10-14T04:02:30.443638+00:00,0.490000,10.693580,
2025-10-14T04:02:30.448638+00:00,0.495000,10.512320,
2025-10-14T04:02:30.453638+00:00,0.500000,10.356520,
2025-10-14T04:02:30.458638+00:00,0.505000,10.247460,
2025-10-14T04:02:30.463638+00:00,0.510000,9.995520,
2025-10-14T04:02:30.468638+00:00,0.515000,9.598800,
2025-10-14T04:02:30.473638+00:00,0.520000,9.570680,
2025-10-14T04:02:30.478638+00:00,0.525000,9.955620,
2025-10-14T04:02:30.483638+00:00,0.530000,9.389420,
2025-10-14T04:02:30.488638+00:00,0.535000,6.171200,
2025-10-14T04:02:30.493638+00:00,0.540000,0.288040,
2025-10-14T04:02:30.498638+00:00,0.545000,-6.266960,
2025-10-14T04:02:30.503638+00:00,0.550000,-11.447500,
2025-10-14T04:02:30.508638+00:00,0.555000,-14.889540,
2025-10-14T04:02:30.513638+00:00,0.560000,-17.434400,
2025-10-14T04:02:30.518638+00:00,0.565000,-19.579880,
2025-10-14T04:02:30.523638+00:00,0.570000,-21.231360,
2025-10-14T04:02:30.528638+00:00,0.575000,-22.397580,
2025-10-14T04:02:30.533638+00:00,0.580000,-23.241940,
2025-10-14T04:02:30.538638+00:00,0.585000,-23.840440,
2025-10-14T04:02:30.543638+00:00,0.590000,-24.236400,
2025-10-14T04:02:30.548638+00:00,0.595000,-24.472760,
2025-10-14T04:02:30.553638+00:00,0.600000,-24.581820,
2025-10-14T04:02:30.558638+00:00,0.605000,-24.595880,
2025-10-14T04:02:30.563638+00:00,0.610000,-24.539640,
2025-10-14T04:02:30.568638+00:00,0.615000,-24.436660,
2025-10-14T04:02:30.573638+00:00,0.620000,-24.299100,
2025-10-14T04:02:30.578638+00:00,0.625000,-24.131520,
2025-10-14T04:02:30.583638+00:00,0.630000,-23.929360,
2025-10-14T04:02:30.588638+00:00,0.635000,-23.696420,
2025-10-14T04:02:30.593638+00:00,0.640000,-23.439160,
2025-10-14T04:02:30.598638+00:00,0.645000,-23.162140,
2025-10-14T04:02:30.603638+00:00,0.650000,-22.877520,
2025-10-14T04:02:30.608638+00:00,0.655000,-22.589100,
2025-10-14T04:02:30.613638+00:00,0.660000,-22.305240,
2025-10-14T04:02:30.618638+00:00,0.665000,-22.022140,
2025-10-14T04:02:30.623638+00:00,0.670000,-21.729920,
2025-10-14T04:02:30.628638+00:00,0.675000,-21.423640,
2025-10-14T04:02:30.633638+00:00,0.680000,-21.114700,
2025-10-14T04:02:30.638638+00:00,0.685000,-20.816780,
2025-10-14T04:02:30.643638+00:00,0.690000,-20.527980,
2025-10-14T04:02:30.648638+00:00,0.695000,-20.229680,
2025-10-14T04:02:30.653638+00:00,0.700000,-19.918460,
2025-10-14T04:02:30.658638+00:00,0.705000,-19.606480,
2025-10-14T04:02:30.663638+00:00,0.710000,-19.310080,
2025-10-14T04:02:30.668638+00:00,0.715000,-19.025080,
2025-10-14T04:02:30.673638+00:00,0.720000,-18.735140,
2025-10-14T04:02:30.678638+00:00,0.725000,-18.436080,
2025-10-14T04:02:30.683638+00:00,0.730000,-18.137780,
2025-10-14T04:02:30.688638+00:00,0.735000,-17.852400,
2025-10-14T04:02:30.693638+00:00,0.740000,-17.577660,
2025-10-14T04:02:30.698638+00:00,0.745000,-17.307860,
2025-10-14T04:02:30.703638+00:00,0.750000,-17.043380,
2025-10-14T04:02:30.708638+00:00,0.755000,-16.786880,
2025-10-14T04:02:30.713638+00:00,0.760000,-16.531900,
2025-10-14T04:02:30.718638+00:00,0.765000,-16.264380,
2025-10-14T04:02:30.723638+00:00,0.770000,-15.986980,
2025-10-14T04:02:30.728638+00:00,0.775000,-15.719840,
2025-10-14T04:02:30.733638+00:00,0.780000,-15.477780,
2025-10-14T04:02:30.738638+00:00,0.785000,-15.255100,
2025-10-14T04:02:30.743638+00:00,0.790000,-15.038120,
2025-10-14T04:02:30.748638+00:00,0.795000,-14.815440,
2025-10-14T04:02:30.753638+00:00,0.800000,-14.589340,
2025-10-14T04:02:30.758638+00:00,0.805000,-14.362100,
2025-10-14T04:02:30.763638+00:00,0.810000,-14.135620,
2025-10-14T04:02:30.768638+00:00,0.815000,-13.920160,
2025-10-14T04:02:30.773638+00:00,0.820000,-13.716480,
2025-10-14T04:02:30.778638+00:00,0.825000,-13.511280,
2025-10-14T04:02:30.783638+00:00,0.830000,-13.293920,
2025-10-14T04:02:30.788638+00:00,0.835000,-13.068200,
2025-10-14T04:02:30.793638+00:00,0.840000,-12.852360,
2025-10-14T04:02:30.798638+00:00,0.845000,-12.654380,
2025-10-14T04:02:30.803638+00:00,0.850000,-12.467040,
2025-10-14T04:02:30.808638+00:00,0.855000,-12.280840,
2025-10-14T04:02:30.813638+00:00,0.860000,-12.094260,
2025-10-14T04:02:30.818638+00:00,0.865000,-11.909960,
2025-10-14T04:02:30.823638+00:00,0.870000,-11.728320,
2025-10-14T04:02:30.828638+00:00,0.875000,-11.551240,
2025-10-14T04:02:30.833638+00:00,0.880000,-11.378340,
2025-10-14T04:02:30.838638+00:00,0.885000,-11.213040,
2025-10-14T04:02:30.843638+00:00,0.890000,-11.045840,
2025-10-14T04:02:30.848638+00:00,0.895000,-10.873700,
2025-10-14T04:02:30.853638+00:00,0.900000,-10.700800,
2025-10-14T04:02:30.858638+00:00,0.905000,-10.532840,
2025-10-14T04:02:30.863638+00:00,0.910000,-10.363360,
2025-10-14T04:02:30.868638+00:00,0.915000,-10.191220,
2025-10-14T04:02:30.873638+00:00,0.920000,-10.019460,
2025-10-14T04:02:30.878638+00:00,0.925000,-9.834400,
2025-10-14T04:02:30.883638+00:00,0.930000,-9.606780,
2025-10-14T04:02:30.888638+00:00,0.935000,-9.313800,
2025-10-14T04:02:30.893638+00:00,0.940000,-8.951660,
2025-10-14T04:02:30.898638+00:00,0.945000,-8.618400,
2025-10-14T04:02:30.903638+00:00,0.950000,-8.491100,
2025-10-14T04:02:30.908638+00:00,0.955000,-8.671980,
2025-10-14T04:02:30.913638+00:00,0.960000,-9.025760,
2025-10-14T04:02:30.918638+00:00,0.965000,-9.266680,
2025-10-14T04:02:30.923638+00:00,0.970000,-9.219940,
2025-10-14T04:02:30.928638+00:00,0.975000,-8.957740,
2025-10-14T04:02:30.933638+00:00,0.980000,-8.661720,
2025-10-14T04:02:30.938638+00:00,0.985000,-8.421180,
2025-10-14T04:02:30.943638+00:00,0.990000,-8.224720,
2025-10-14T04:02:30.948638+00:00,0.995000,-8.056000,
2025-10-14T04:02:30.953638+00:00,1.000000,-7.910080,
2025-10-14T04:02:30.958638+00:00,1.005000,-7.769480,
2025-10-14T04:02:30.963638+00:00,1.010000,-7.623560,
2025-10-14T04:02:30.968638+00:00,1.015000,-7.482200,
2025-10-14T04:02:30.973638+00:00,1.020000,-7.356800,
2025-10-14T04:02:30.978638+00:00,1.025000,-7.236340,
2025-10-14T04:02:30.983638+00:00,1.030000,-7.118160,
2025-10-14T04:02:30.988638+00:00,1.035000,-7.001120,
2025-10-14T04:02:30.993638+00:00,1.040000,-6.885980,
2025-10-14T04:02:30.998638+00:00,1.045000,-6.768560,
2025-10-14T04:02:31.003638+00:00,1.050000,-6.650380,
2025-10-14T04:02:31.008638+00:00,1.055000,-6.538660,
2025-10-14T04:02:31.013638+00:00,1.060000,-6.435300,
2025-10-14T04:02:31.018638+00:00,1.065000,-6.327760,
2025-10-14T04:02:31.023638+00:00,1.070000,-6.216420,
2025-10-14T04:02:31.028638+00:00,1.075000,-6.108500,
2025-10-14T04:02:31.033638+00:00,1.080000,-6.012360,
2025-10-14T04:02:31.038638+00:00,1.085000,-5.916600,
2025-10-14T04:02:31.043638+00:00,1.090000,-5.812100,
2025-10-14T04:02:31.048638+00:00,1.095000,-5.704940,
2025-10-14T04:02:31.053638+00:00,1.100000,-5.607660,
2025-10-14T04:02:31.058638+00:00,1.105000,-5.519500,
2025-10-14T04:02:31.063638+00:00,1.110000,-5.434380,
2025-10-14T04:02:31.068638+00:00,1.115000,-5.342420,
2025-10-14T04:02:31.073638+00:00,1.120000,-5.248560,
2025-10-14T04:02:31.078638+00:00,1.125000,-5.152800,
2025-10-14T04:02:31.083638+00:00,1.130000,-5.060080,
2025-10-14T04:02:31.088638+00:00,1.135000,-4.970400,
2025-10-14T04:02:31.093638+00:00,1.140000,-4.884520,
2025-10-14T04:02:31.098638+00:00,1.145000,-4.792560,
2025-10-14T04:02:31.103638+00:00,1.150000,-4.699460,
2025-10-14T04:02:31.108638+00:00,1.155000,-4.617380,
2025-10-14T04:02:31.113638+00:00,1.160000,-4.555060,
2025-10-14T04:02:31.118638+00:00,1.165000,-4.500340,
2025-10-14T04:02:31.123638+00:00,1.170000,-4.438780,
2025-10-14T04:02:31.128638+00:00,1.175000,-4.369240,
2025-10-14T04:02:31.133638+00:00,1.180000,-4.304640,
2025-10-14T04:02:31.138638+00:00,1.185000,-4.250680,
2025-10-14T04:02:31.143638+00:00,1.190000,-4.202800,
2025-10-14T04:02:31.148638+00:00,1.195000,-4.154160,
2025-10-14T04:02:31.153638+00:00,1.200000,-4.112360,
2025-10-14T04:02:31.158638+00:00,1.205000,-4.085000,
2025-10-14T04:02:31.163638+00:00,1.210000,-4.069420,
2025-10-14T04:02:31.168638+00:00,1.215000,-4.051560,
2025-10-14T04:02:31.173638+00:00,1.220000,-4.021920,
2025-10-14T04:02:31.178638+00:00,1.225000,-3.984680,
2025-10-14T04:02:31.183638+00:00,1.230000,-3.939840,
2025-10-14T04:02:31.188638+00:00,1.235000,-3.890060,
2025-10-14T04:02:31.193638+00:00,1.240000,-3.828880,
2025-10-14T04:02:31.198638+00:00,1.245000,-3.760480,
2025-10-14T04:02:31.203638+00:00,1.250000,-3.697400,
2025-10-14T04:02:31.208638+00:00,1.255000,-3.635080,
2025-10-14T04:02:31.213638+00:00,1.260000,-3.562120,
2025-10-14T04:02:31.218638+00:00,1.265000,-3.477380,
2025-10-14T04:02:31.223638+00:00,1.270000,-3.397960,
2025-10-14T04:02:31.228638+00:00,1.275000,-3.337920,
2025-10-14T04:02:31.233638+00:00,1.280000,-3.283200,
2025-10-14T04:02:31.238638+00:00,1.285000,-3.228480,
2025-10-14T04:02:31.243638+00:00,1.290000,-3.178700,
2025-10-14T04:02:31.248638+00:00,1.295000,-3.140320,
2025-10-14T04:02:31.253638+00:00,1.300000,-3.103840,
2025-10-14T04:02:31.258638+00:00,1.305000,-3.053680,
2025-10-14T04:02:31.263638+00:00,1.310000,-2.990220,
2025-10-14T04:02:31.268638+00:00,1.315000,-2.928280,
2025-10-14T04:02:31.273638+00:00,1.320000,-2.883440,
2025-10-14T04:02:31.278638+00:00,1.325000,-2.853040,
2025-10-14T04:02:31.283638+00:00,1.330000,-2.819220,
2025-10-14T04:02:31.288638+00:00,1.335000,-2.780840,
2025-10-14T04:02:31.293638+00:00,1.340000,-2.742460,
2025-10-14T04:02:31.298638+00:00,1.345000,-2.706740,
2025-10-14T04:02:31.303638+00:00,1.350000,-2.661520,
2025-10-14T04:02:31.308638+00:00,1.355000,-2.600720,
2025-10-14T04:02:31.313638+00:00,1.360000,-2.532320,
2025-10-14T04:02:31.318638+00:00,1.365000,-2.477220,
2025-10-14T04:02:31.323638+00:00,1.370000,-2.443020,
2025-10-14T04:02:31.328638+00:00,1.375000,-2.418700,
2025-10-14T04:02:31.333638+00:00,1.380000,-2.390960,
2025-10-14T04:02:31.338638+00:00,1.385000,-2.361700,
2025-10-14T04:02:31.343638+00:00,1.390000,-2.333960,
2025-10-14T04:02:31.348638+00:00,1.395000,-2.295580,
2025-10-14T04:02:31.353638+00:00,1.400000,-2.251500,
2025-10-14T04:02:31.358638+00:00,1.405000,-2.210080,
2025-10-14T04:02:31.363638+00:00,1.410000,-2.182720,
2025-10-14T04:02:31.368638+00:00,1.415000,-2.157640,
2025-10-14T04:02:31.373638+00:00,1.420000,-2.122680,
2025-10-14T04:02:31.378638+00:00,1.425000,-2.080880,
2025-10-14T04:02:31.383638+00:00,1.430000,-2.050480,
2025-10-14T04:02:31.388638+00:00,1.435000,-2.030340,
2025-10-14T04:02:31.393638+00:00,1.440000,-2.001080,
2025-10-14T04:02:31.398638+00:00,1.445000,-1.950920,
2025-10-14T04:02:31.403638+00:00,1.450000,-1.898100,
2025-10-14T04:02:31.408638+00:00,1.455000,-1.866180,
2025-10-14T04:02:31.413638+00:00,1.460000,-1.859340,
2025-10-14T04:02:31.418638+00:00,1.465000,-1.859340,
2025-10-14T04:02:31.423638+00:00,1.470000,-1.842240,
2025-10-14T04:02:31.428638+00:00,1.475000,-1.802340,
2025-10-14T04:02:31.433638+00:00,1.480000,-1.757500,
2025-10-14T04:02:31.438638+00:00,1.485000,-1.722920,
2025-10-14T04:02:31.443638+00:00,1.490000,-1.700500,
2025-10-14T04:02:31.448638+00:00,1.495000,-1.673900,
2025-10-14T04:02:31.453638+00:00,1.500000,-1.640840,
2025-10-14T04:02:31.458638+00:00,1.505000,-1.613100,
2025-10-14T04:02:31.463638+00:00,1.510000,-1.596000,
2025-10-14T04:02:31.468638+00:00,1.515000,-1.575100,
2025-10-14T04:02:31.473638+00:00,1.520000,-1.542800,
2025-10-14T04:02:31.478638+00:00,1.525000,-1.511260,
2025-10-14T04:02:31.483638+00:00,1.530000,-1.494540,
2025-10-14T04:02:31.488638+00:00,1.535000,-1.488460,
2025-10-14T04:02:31.493638+00:00,1.540000,-1.478580,
2025-10-14T04:02:31.498638+00:00,1.545000,-1.460720,
2025-10-14T04:02:31.503638+00:00,1.550000,-1.439820,
2025-10-14T04:02:31.508638+00:00,1.555000,-1.425000,
2025-10-14T04:02:31.513638+00:00,1.560000,-1.422340,
2025-10-14T04:02:31.518638+00:00,1.565000,-1.426140,
2025-10-14T04:02:31.523638+00:00,1.570000,-1.421960,
2025-10-14T04:02:31.528638+00:00,1.575000,-1.394980,
2025-10-14T04:02:31.533638+00:00,1.580000,-1.354320,
2025-10-14T04:02:31.538638+00:00,1.585000,-1.316700,
2025-10-14T04:02:31.543638+00:00,1.590000,-1.295040,
2025-10-14T04:02:31.548638+00:00,1.595000,-1.273000,
2025-10-14T04:02:31.553638+00:00,1.600000,-1.237660,
2025-10-14T04:02:31.558638+00:00,1.605000,-1.196240,
2025-10-14T04:02:31.563638+00:00,1.610000,-1.161280,
2025-10-14T04:02:31.568638+00:00,1.615000,-1.133540,
2025-10-14T04:02:31.573638+00:00,1.620000,-1.108840,
2025-10-14T04:02:31.578638+00:00,1.625000,-1.081100,
2025-10-14T04:02:31.583638+00:00,1.630000,-1.054500,
2025-10-14T04:02:31.588638+00:00,1.635000,-1.031700,
2025-10-14T04:02:31.593638+00:00,1.640000,-1.013840,
2025-10-14T04:02:31.598638+00:00,1.645000,-0.997500,
2025-10-14T04:02:31.603638+00:00,1.650000,-0.983060,
2025-10-14T04:02:31.608638+00:00,1.655000,-0.976600,
2025-10-14T04:02:31.613638+00:00,1.660000,-0.975080,
2025-10-14T04:02:31.618638+00:00,1.665000,-0.970140,
2025-10-14T04:02:31.623638+00:00,1.670000,-0.951140,
2025-10-14T04:02:31.628638+00:00,1.675000,-0.922640,
2025-10-14T04:02:31.633638+00:00,1.680000,-0.898700,
2025-10-14T04:02:31.638638+00:00,1.685000,-0.885020,
2025-10-14T04:02:31.643638+00:00,1.690000,-0.863740,
2025-10-14T04:02:31.648638+00:00,1.695000,-0.828400,
2025-10-14T04:02:31.653638+00:00,1.700000,-0.794200,
2025-10-14T04:02:31.658638+00:00,1.705000,-0.777480,
2025-10-14T04:02:31.663638+00:00,1.710000,-0.766840,
2025-10-14T04:02:31.668638+00:00,1.715000,-0.743660,
2025-10-14T04:02:31.673638+00:00,1.720000,-0.716300,
2025-10-14T04:02:31.678638+00:00,1.725000,-0.710980,
2025-10-14T04:02:31.683638+00:00,1.730000,-0.725040,
2025-10-14T04:02:31.688638+00:00,1.735000,-0.734920,
2025-10-14T04:02:31.693638+00:00,1.740000,-0.718200,
2025-10-14T04:02:31.698638+00:00,1.745000,-0.684760,
2025-10-14T04:02:31.703638+00:00,1.750000,-0.653600,
2025-10-14T04:02:31.708638+00:00,1.755000,-0.630800,
2025-10-14T04:02:31.713638+00:00,1.760000,-0.601160,
2025-10-14T04:02:31.718638+00:00,1.765000,-0.575320,
2025-10-14T04:02:31.723638+00:00,1.770000,-0.566580,
2025-10-14T04:02:31.728638+00:00,1.775000,-0.550620,
2025-10-14T04:02:31.733638+00:00,1.780000,-0.473480,
2025-10-14T04:02:31.738638+00:00,1.785000,-0.299440,
2025-10-14T04:02:31.743638+00:00,1.790000,-0.050540,
2025-10-14T04:02:31.748638+00:00,1.795000,0.159220,
2025-10-14T04:02:31.753638+00:00,1.800000,0.141360,
2025-10-14T04:02:31.758638+00:00,1.805000,-0.198360,
2025-10-14T04:02:31.763638+00:00,1.810000,-0.719720,
2025-10-14T04:02:31.768638+00:00,1.815000,-1.122900,
2025-10-14T04:02:31.773638+00:00,1.820000,-1.207640,
2025-10-14T04:02:31.778638+00:00,1.825000,-1.045380,
2025-10-14T04:02:31.783638+00:00,1.830000,-0.853100,
2025-10-14T04:02:31.788638+00:00,1.835000,-0.752400,
2025-10-14T04:02:31.793638+00:00,1.840000,-0.711740,
2025-10-14T04:02:31.798638+00:00,1.845000,-0.673360,
2025-10-14T04:02:31.803638+00:00,1.850000,-0.633840,
2025-10-14T04:02:31.808638+00:00,1.855000,-0.600020,
2025-10-14T04:02:31.813638+00:00,1.860000,-0.575320,
2025-10-14T04:02:31.818638+00:00,1.865000,-0.558980,
2025-10-14T04:02:31.823638+00:00,1.870000,-0.553280,
2025-10-14T04:02:31.828638+00:00,1.875000,-0.556320,
2025-10-14T04:02:31.833638+00:00,1.880000,-0.554800,
2025-10-14T04:02:31.838638+00:00,1.885000,-0.544160,
2025-10-14T04:02:31.843638+00:00,1.890000,-0.529340,
2025-10-14T04:02:31.848638+00:00,1.895000,-0.525540,
2025-10-14T04:02:31.853638+00:00,1.900000,-0.540360,
2025-10-14T04:02:31.858638+00:00,1.905000,-0.566960,
2025-10-14T04:02:31.863638+00:00,1.910000,-0.585960,
2025-10-14T04:02:31.868638+00:00,1.915000,-0.591280,
2025-10-14T04:02:31.873638+00:00,1.920000,-0.595460,
2025-10-14T04:02:31.878638+00:00,1.925000,-0.622060,
2025-10-14T04:02:31.883638+00:00,1.930000,-0.677540,
2025-10-14T04:02:31.888638+00:00,1.935000,-0.752400,
2025-10-14T04:02:31.893638+00:00,1.940000,-0.829160,
2025-10-14T04:02:31.898638+00:00,1.945000,-0.901740,
2025-10-14T04:02:31.903638+00:00,1.950000,-0.966720,
2025-10-14T04:02:31.908638+00:00,1.955000,-1.019540,
2025-10-14T04:02:31.913638+00:00,1.960000,-1.056020,
2025-10-14T04:02:31.918638+00:00,1.965000,-1.084140,
2025-10-14T04:02:31.923638+00:00,1.970000,-1.100480,
2025-10-14T04:02:31.928638+00:00,1.975000,-1.086800,
2025-10-14T04:02:31.933638+00:00,1.980000,-1.035120,
2025-10-14T04:02:31.938638+00:00,1.985000,-0.969380,
2025-10-14T04:02:31.943638+00:00,1.990000,-0.919600,
2025-10-14T04:02:31.948638+00:00,1.995000,-0.889580,
2025-10-14T04:02:31.953638+00:00,2.000000,-0.875900,
2025-10-14T04:02:31.958638+00:00,2.005000,-0.888440,
2025-10-14T04:02:31.963638+00:00,2.010000,-0.932520,
2025-10-14T04:02:31.968638+00:00,2.015000,-0.978120,
2025-10-14T04:02:31.973638+00:00,2.020000,-0.987620,
2025-10-14T04:02:31.978638+00:00,2.025000,-0.964820,
2025-10-14T04:02:31.983638+00:00,2.030000,-0.945440,
2025-10-14T04:02:31.988638+00:00,2.035000,-0.954940,
2025-10-14T04:02:31.993638+00:00,2.040000,-0.978880,
2025-10-14T04:02:31.998638+00:00,2.045000,-0.992180,
2025-10-14T04:02:32.003638+00:00,2.050000,-0.986100,
2025-10-14T04:02:32.008638+00:00,2.055000,-0.967860,
2025-10-14T04:02:32.013638+00:00,2.060000,-0.939740,
2025-10-14T04:02:32.018638+00:00,2.065000,-0.900980,
2025-10-14T04:02:32.023638+00:00,2.070000,-0.857280,
2025-10-14T04:02:32.028638+00:00,2.075000,-0.820420,
2025-10-14T04:02:32.033638+00:00,2.080000,-0.796100,
2025-10-14T04:02:32.038638+00:00,2.085000,-0.780900,
2025-10-14T04:02:32.043638+00:00,2.090000,-0.758860,
2025-10-14T04:02:32.048638+00:00,2.095000,-0.717440,
2025-10-14T04:02:32.053638+00:00,2.100000,-0.656260,
2025-10-14T04:02:32.058638+00:00,2.105000,-0.592420,
2025-10-14T04:02:32.063638+00:00,2.110000,-0.544920,
2025-10-14T04:02:32.068638+00:00,2.115000,-0.518700,
2025-10-14T04:02:32.073638+00:00,2.120000,-0.508060,
2025-10-14T04:02:32.078638+00:00,2.125000,-0.502360,
2025-10-14T04:02:32.083638+00:00,2.130000,-0.506920,
2025-10-14T04:02:32.088638+00:00,2.135000,-0.514140,
2025-10-14T04:02:32.093638+00:00,2.140000,-0.509200,
2025-10-14T04:02:32.098638+00:00,2.145000,-0.482600,
2025-10-14T04:02:32.103638+00:00,2.150000,-0.436620,
2025-10-14T04:02:32.108638+00:00,2.155000,-0.375060,
2025-10-14T04:02:32.113638+00:00,2.160000,-0.298680,
2025-10-14T04:02:32.118638+00:00,2.165000,-0.205960,
2025-10-14T04:02:32.123638+00:00,2.170000,-0.087020,
2025-10-14T04:02:32.128638+00:00,2.175000,0.082840,
2025-10-14T04:02:32.133638+00:00,2.180000,0.311600,
2025-10-14T04:02:32.138638+00:00,2.185000,0.567340,
2025-10-14T04:02:32.143638+00:00,2.190000,0.798380,
2025-10-14T04:02:32.148638+00:00,2.195000,0.978120,
2025-10-14T04:02:32.153638+00:00,2.200000,1.116820,
2025-10-14T04:02:32.158638+00:00,2.205000,1.221320,
2025-10-14T04:02:32.163638+00:00,2.210000,1.280220,
2025-10-14T04:02:32.168638+00:00,2.215000,1.287820,
2025-10-14T04:02:32.173638+00:00,2.220000,1.263120,
2025-10-14T04:02:32.178638+00:00,2.225000,1.225120,
2025-10-14T04:02:32.183638+00:00,2.230000,1.178760,
2025-10-14T04:02:32.188638+00:00,2.235000,1.111880,
2025-10-14T04:02:32.193638+00:00,2.240000,1.030180,
2025-10-14T04:02:32.198638+00:00,2.245000,0.948100,
2025-10-14T04:02:32.203638+00:00,2.250000,0.880080,
2025-10-14T04:02:32.208638+00:00,2.255000,0.826120,
2025-10-14T04:02:32.213638+00:00,2.260000,0.780140,
2025-10-14T04:02:32.218638+00:00,2.265000,0.732640,
2025-10-14T04:02:32.223638+00:00,2.270000,0.684000,
2025-10-14T04:02:32.228638+00:00,2.275000,0.632320,
2025-10-14T04:02:32.233638+00:00,2.280000,0.582540,
2025-10-14T04:02:32.238638+00:00,2.285000,0.534280,
2025-10-14T04:02:32.243638+00:00,2.290000,0.483360,
2025-10-14T04:02:32.248638+00:00,2.295000,0.430160,
2025-10-14T04:02:32.253638+00:00,2.300000,0.375440,
2025-10-14T04:02:32.258638+00:00,2.305000,0.329080,
2025-10-14T04:02:32.263638+00:00,2.310000,0.290700,
2025-10-14T04:02:32.268638+00:00,2.315000,0.256500,
2025-10-14T04:02:32.273638+00:00,2.320000,0.223060,
2025-10-14T04:02:32.278638+00:00,2.325000,0.192660,
2025-10-14T04:02:32.283638+00:00,2.330000,0.169860,
2025-10-14T04:02:32.288638+00:00,2.335000,0.152000,
2025-10-14T04:02:32.293638+00:00,2.340000,0.133380,
2025-10-14T04:02:32.298638+00:00,2.345000,0.124640,
2025-10-14T04:02:32.303638+00:00,2.350000,0.133380,
2025-10-14T04:02:32.308638+00:00,2.355000,0.150100,
2025-10-14T04:02:32.313638+00:00,2.360000,0.158080,
2025-10-14T04:02:32.318638+00:00,2.365000,0.150480,
2025-10-14T04:02:32.323638+00:00,2.370000,0.140220,
2025-10-14T04:02:32.328638+00:00,2.375000,0.144780,
2025-10-14T04:02:32.333638+00:00,2.380000,0.167580,
2025-10-14T04:02:32.338638+00:00,2.385000,0.193040,
2025-10-14T04:02:32.343638+00:00,2.390000,0.212800,
2025-10-14T04:02:32.348638+00:00,2.395000,0.232180,
2025-10-14T04:02:32.353638+00:00,2.400000,0.251560,
2025-10-14T04:02:32.358638+00:00,2.405000,0.258400,
2025-10-14T04:02:32.363638+00:00,2.410000,0.247380,
2025-10-14T04:02:32.368638+00:00,2.415000,0.234080,
2025-10-14T04:02:32.373638+00:00,2.420000,0.231800,
2025-10-14T04:02:32.378638+00:00,2.425000,0.236360,
2025-10-14T04:02:32.383638+00:00,2.430000,0.231040,
2025-10-14T04:02:32.388638+00:00,2.435000,0.209000,
2025-10-14T04:02:32.393638+00:00,2.440000,0.185440,
2025-10-14T04:02:32.398638+00:00,2.445000,0.173280,
2025-10-14T04:02:32.403638+00:00,2.450000,0.168720,
2025-10-14T04:02:32.408638+00:00,2.455000,0.159600,
2025-10-14T04:02:32.413638+00:00,2.460000,0.147820,
2025-10-14T04:02:32.418638+00:00,2.465000,0.148200,
2025-10-14T04:02:32.423638+00:00,2.470000,0.157320,
2025-10-14T04:02:32.428638+00:00,2.475000,0.157320,
2025-10-14T04:02:32.433638+00:00,2.480000,0.140600,
2025-10-14T04:02:32.438638+00:00,2.485000,0.118180,
2025-10-14T04:02:32.443638+00:00,2.490000,0.107540,
2025-10-14T04:02:32.448638+00:00,2.495000,0.106020,
2025-10-14T04:02:32.453638+00:00,2.500000,0.093860,
2025-10-14T04:02:32.458638+00:00,2.505000,0.061940,
2025-10-14T04:02:32.463638+00:00,2.510000,0.022040,
2025-10-14T04:02:32.468638+00:00,2.515000,-0.003420,
2025-10-14T04:02:32.473638+00:00,2.520000,-0.012920,
2025-10-14T04:02:32.478638+00:00,2.525000,-0.018240,
2025-10-14T04:02:32.483638+00:00,2.530000,-0.026600,
2025-10-14T04:02:32.488638+00:00,2.535000,-0.042560,
2025-10-14T04:02:32.493638+00:00,2.540000,-0.060420,
2025-10-14T04:02:32.498638+00:00,2.545000,-0.073340,
2025-10-14T04:02:32.503638+00:00,2.550000,-0.080940,
2025-10-14T04:02:32.508638+00:00,2.555000,-0.083600,
2025-10-14T04:02:32.513638+00:00,2.560000,-0.083600,
2025-10-14T04:02:32.518638+00:00,2.565000,-0.088920,
2025-10-14T04:02:32.523638+00:00,2.570000,-0.100320,
2025-10-14T04:02:32.528638+00:00,2.575000,-0.112480,
2025-10-14T04:02:32.533638+00:00,2.580000,-0.119320,
2025-10-14T04:02:32.538638+00:00,2.585000,-0.125780,
2025-10-14T04:02:32.543638+00:00,2.590000,-0.138700,
2025-10-14T04:02:32.548638+00:00,2.595000,-0.163400,
2025-10-14T04:02:32.553638+00:00,2.600000,-0.182780,
2025-10-14T04:02:32.558638+00:00,2.605000,-0.175560,
2025-10-14T04:02:32.563638+00:00,2.610000,-0.143260,
2025-10-14T04:02:32.568638+00:00,2.615000,-0.115520,
2025-10-14T04:02:32.573638+00:00,2.620000,-0.100700,
2025-10-14T04:02:32.578638+00:00,2.625000,-0.057760,
2025-10-14T04:02:32.583638+00:00,2.630000,0.065740,
2025-10-14T04:02:32.588638+00:00,2.635000,0.278160,
2025-10-14T04:02:32.593638+00:00,2.640000,0.525540,
2025-10-14T04:02:32.598638+00:00,2.645000,0.657780,
2025-10-14T04:02:32.603638+00:00,2.650000,0.503880,
2025-10-14T04:02:32.608638+00:00,2.655000,0.053960,
2025-10-14T04:02:32.613638+00:00,2.660000,-0.465500,
2025-10-14T04:02:32.618638+00:00,2.665000,-0.763800,
2025-10-14T04:02:32.623638+00:00,2.670000,-0.748220,
2025-10-14T04:02:32.628638+00:00,2.675000,-0.571900,
2025-10-14T04:02:32.633638+00:00,2.680000,-0.419520,
2025-10-14T04:02:32.638638+00:00,2.685000,-0.343520,
2025-10-14T04:02:32.643638+00:00,2.690000,-0.309700,
2025-10-14T04:02:32.648638+00:00,2.695000,-0.297920,
2025-10-14T04:02:32.653638+00:00,2.700000,-0.292600,
2025-10-14T04:02:32.658638+00:00,2.705000,-0.275120,
2025-10-14T04:02:32.663638+00:00,2.710000,-0.239780,
2025-10-14T04:02:32.668638+00:00,2.715000,-0.204060,
2025-10-14T04:02:32.673638+00:00,2.720000,-0.188100,
2025-10-14T04:02:32.678638+00:00,2.725000,-0.185060,
2025-10-14T04:02:32.683638+00:00,2.730000,-0.181640,
2025-10-14T04:02:32.688638+00:00,2.735000,-0.174800,
2025-10-14T04:02:32.693638+00:00,2.740000,-0.174420,
2025-10-14T04:02:32.698638+00:00,2.745000,-0.177080,
2025-10-14T04:02:32.703638+00:00,2.750000,-0.172520,
2025-10-14T04:02:32.708638+00:00,2.755000,-0.160360,
2025-10-14T04:02:32.713638+00:00,2.760000,-0.147440,
2025-10-14T04:02:32.718638+00:00,2.765000,-0.144020,
2025-10-14T04:02:32.723638+00:00,2.770000,-0.152760,
2025-10-14T04:02:32.728638+00:00,2.775000,-0.164920,
2025-10-14T04:02:32.733638+00:00,2.780000,-0.164540,
2025-10-14T04:02:32.738638+00:00,2.785000,-0.147060,
2025-10-14T04:02:32.743638+00:00,2.790000,-0.118940,
2025-10-14T04:02:32.748638+00:00,2.795000,-0.095000,
2025-10-14T04:02:32.753638+00:00,2.800000,-0.085880,
2025-10-14T04:02:32.758638+00:00,2.805000,-0.085880,
2025-10-14T04:02:32.763638+00:00,2.810000,-0.079420,
2025-10-14T04:02:32.768638+00:00,2.815000,-0.063840,
2025-10-14T04:02:32.773638+00:00,2.820000,-0.051300,
2025-10-14T04:02:32.778638+00:00,2.825000,-0.050920,
2025-10-14T04:02:32.783638+00:00,2.830000,-0.061560,
2025-10-14T04:02:32.788638+00:00,2.835000,-0.075240,
2025-10-14T04:02:32.793638+00:00,2.840000,-0.079420,
2025-10-14T04:02:32.798638+00:00,2.845000,-0.076380,
2025-10-14T04:02:32.803638+00:00,2.850000,-0.071060,
2025-10-14T04:02:32.808638+00:00,2.855000,-0.064980,
2025-10-14T04:02:32.813638+00:00,2.860000,-0.055860,
2025-10-14T04:02:32.818638+00:00,2.865000,-0.052440,
2025-10-14T04:02:32.823638+00:00,2.870000,-0.057380,
2025-10-14T04:02:32.828638+00:00,2.875000,-0.076380,
2025-10-14T04:02:32.833638+00:00,2.880000,-0.101460,
2025-10-14T04:02:32.838638+00:00,2.885000,-0.121600,
2025-10-14T04:02:32.843638+00:00,2.890000,-0.129580,
2025-10-14T04:02:32.848638+00:00,2.895000,-0.121600,
2025-10-14T04:02:32.853638+00:00,2.900000,-0.122360,
2025-10-14T04:02:32.858638+00:00,2.905000,-0.151240,
2025-10-14T04:02:32.863638+00:00,2.910000,-0.201400,
2025-10-14T04:02:32.868638+00:00,2.915000,-0.246240,
2025-10-14T04:02:32.873638+00:00,2.920000,-0.272080,
2025-10-14T04:02:32.878638+00:00,2.925000,-0.289180,
2025-10-14T04:02:32.883638+00:00,2.930000,-0.310080,
2025-10-14T04:02:32.888638+00:00,2.935000,-0.329080,
2025-10-14T04:02:32.893638+00:00,2.940000,-0.343140,
2025-10-14T04:02:32.898638+00:00,2.945000,-0.348840,
2025-10-14T04:02:32.903638+00:00,2.950000,-0.353780,
2025-10-14T04:02:32.908638+00:00,2.955000,-0.365560,
2025-10-14T04:02:32.913638+00:00,2.960000,-0.370120,
2025-10-14T04:02:32.918638+00:00,2.965000,-0.341240,
2025-10-14T04:02:32.923638+00:00,2.970000,-0.282720,
2025-10-14T04:02:32.928638+00:00,2.975000,-0.228760,
2025-10-14T04:02:32.933638+00:00,2.980000,-0.218500,
2025-10-14T04:02:32.938638+00:00,2.985000,-0.244720,
2025-10-14T04:02:32.943638+00:00,2.990000,-0.266380,
2025-10-14T04:02:32.948638+00:00,2.995000,-0.258020,
2025-10-14T04:02:32.953638+00:00,3.000000,-0.234840,
2025-10-14T04:02:32.958638+00:00,3.005000,-0.218120,
2025-10-14T04:02:32.963638+00:00,3.010000,-0.205960,
2025-10-14T04:02:32.968638+00:00,3.015000,-0.186200,
2025-10-14T04:02:32.973638+00:00,3.020000,-0.165300,
2025-10-14T04:02:32.978638+00:00,3.025000,-0.161120,
2025-10-14T04:02:32.983638+00:00,3.030000,-0.169860,
2025-10-14T04:02:32.988638+00:00,3.035000,-0.169860,
2025-10-14T04:02:32.993638+00:00,3.040000,-0.142880,
2025-10-14T04:02:32.998638+00:00,3.045000,-0.099940,
2025-10-14T04:02:33.003638+00:00,3.050000,-0.071060,
2025-10-14T04:02:33.008638+00:00,3.055000,-0.081700,
2025-10-14T04:02:33.013638+00:00,3.060000,-0.118940,
2025-10-14T04:02:33.018638+00:00,3.065000,-0.140980,
2025-10-14T04:02:33.023638+00:00,3.070000,-0.129580,
2025-10-14T04:02:33.028638+00:00,3.075000,-0.103360,
2025-10-14T04:02:33.033638+00:00,3.080000,-0.096140,
2025-10-14T04:02:33.038638+00:00,3.085000,-0.108300,
2025-10-14T04:02:33.043638+00:00,3.090000,-0.115900,
2025-10-14T04:02:33.048638+00:00,3.095000,-0.113620,
2025-10-14T04:02:33.053638+00:00,3.100000,-0.117800,
2025-10-14T04:02:33.058638+00:00,3.105000,-0.131100,
2025-10-14T04:02:33.063638+00:00,3.110000,-0.137940,
2025-10-14T04:02:33.068638+00:00,3.115000,-0.125020,
2025-10-14T04:02:33.073638+00:00,3.120000,-0.109060,
2025-10-14T04:02:33.078638+00:00,3.125000,-0.107540,
2025-10-14T04:02:33.083638+00:00,3.130000,-0.116280,
2025-10-14T04:02:33.088638+00:00,3.135000,-0.122740,
2025-10-14T04:02:33.093638+00:00,3.140000,-0.126540,
2025-10-14T04:02:33.098638+00:00,3.145000,-0.131100,
2025-10-14T04:02:33.103638+00:00,3.150000,-0.132240,
2025-10-14T04:02:33.108638+00:00,3.155000,-0.128440,
2025-10-14T04:02:33.113638+00:00,3.160000,-0.115900,
2025-10-14T04:02:33.118638+00:00,3.165000,-0.102600,
2025-10-14T04:02:33.123638+00:00,3.170000,-0.110960,
2025-10-14T04:02:33.128638+00:00,3.175000,-0.139080,
2025-10-14T04:02:33.133638+00:00,3.180000,-0.157700,
2025-10-14T04:02:33.138638+00:00,3.185000,-0.148580,
2025-10-14T04:02:33.143638+00:00,3.190000,-0.125400,
2025-10-14T04:02:33.148638+00:00,3.195000,-0.120840,
2025-10-14T04:02:33.153638+00:00,3.200000,-0.151240,
2025-10-14T04:02:33.158638+00:00,3.205000,-0.197600,
2025-10-14T04:02:33.163638+00:00,3.210000,-0.238640,
2025-10-14T04:02:33.168638+00:00,3.215000,-0.270560,
2025-10-14T04:02:33.173638+00:00,3.220000,-0.302480,
2025-10-14T04:02:33.178638+00:00,3.225000,-0.326040,
2025-10-14T04:02:33.183638+00:00,3.230000,-0.327940,
2025-10-14T04:02:33.188638+00:00,3.235000,-0.307040,
2025-10-14T04:02:33.193638+00:00,3.240000,-0.283860,
2025-10-14T04:02:33.198638+00:00,3.245000,-0.275500,
2025-10-14T04:02:33.203638+00:00,3.250000,-0.281580,
2025-10-14T04:02:33.208638+00:00,3.255000,-0.288420,
2025-10-14T04:02:33.213638+00:00,3.260000,-0.292980,
2025-10-14T04:02:33.218638+00:00,3.265000,-0.299060,
2025-10-14T04:02:33.223638+00:00,3.270000,-0.308560,
2025-10-14T04:02:33.228638+00:00,3.275000,-0.313120,
2025-10-14T04:02:33.233638+00:00,3.280000,-0.297540,
2025-10-14T04:02:33.238638+00:00,3.285000,-0.268280,
2025-10-14T04:02:33.243638+00:00,3.290000,-0.237500,
2025-10-14T04:02:33.248638+00:00,3.295000,-0.212420,
2025-10-14T04:02:33.253638+00:00,3.300000,-0.191900,
2025-10-14T04:02:33.258638+00:00,3.305000,-0.174800,
2025-10-14T04:02:33.263638+00:00,3.310000,-0.159980,
2025-10-14T04:02:33.268638+00:00,3.315000,-0.146680,
2025-10-14T04:02:33.273638+00:00,3.320000,-0.134900,
2025-10-14T04:02:33.278638+00:00,3.325000,-0.119700,
2025-10-14T04:02:33.283638+00:00,3.330000,-0.097660,
2025-10-14T04:02:33.288638+00:00,3.335000,-0.072960,
2025-10-14T04:02:33.293638+00:00,3.340000,-0.048640,
2025-10-14T04:02:33.298638+00:00,3.345000,-0.030020,
2025-10-14T04:02:33.303638+00:00,3.350000,-0.017480,
2025-10-14T04:02:33.308638+00:00,3.355000,-0.011400,
2025-10-14T04:02:33.313638+00:00,3.360000,-0.002660,
2025-10-14T04:02:33.318638+00:00,3.365000,0.008740,
2025-10-14T04:02:33.323638+00:00,3.370000,0.017860,
2025-10-14T04:02:33.328638+00:00,3.375000,0.022800,
2025-10-14T04:02:33.333638+00:00,3.380000,0.025460,
2025-10-14T04:02:33.338638+00:00,3.385000,0.029260,
2025-10-14T04:02:33.343638+00:00,3.390000,0.038000,
2025-10-14T04:02:33.348638+00:00,3.395000,0.049780,
2025-10-14T04:02:33.353638+00:00,3.400000,0.060800,
2025-10-14T04:02:33.358638+00:00,3.405000,0.069540,
2025-10-14T04:02:33.363638+00:00,3.410000,0.077520,
2025-10-14T04:02:33.368638+00:00,3.415000,0.085880,
2025-10-14T04:02:33.373638+00:00,3.420000,0.101460,
2025-10-14T04:02:33.378638+00:00,3.425000,0.119700,
2025-10-14T04:02:33.383638+00:00,3.430000,0.135660,
2025-10-14T04:02:33.388638+00:00,3.435000,0.155800,
2025-10-14T04:02:33.393638+00:00,3.440000,0.210900,
2025-10-14T04:02:33.398638+00:00,3.445000,0.331740,
2025-10-14T04:02:33.403638+00:00,3.450000,0.526680,
2025-10-14T04:02:33.408638+00:00,3.455000,0.725800,
2025-10-14T04:02:33.413638+00:00,3.460000,0.764940,
2025-10-14T04:02:33.418638+00:00,3.465000,0.511100,
2025-10-14T04:02:33.423638+00:00,3.470000,0.041800,
2025-10-14T04:02:33.428638+00:00,3.475000,-0.379240,
2025-10-14T04:02:33.433638+00:00,3.480000,-0.529340,
2025-10-14T04:02:33.438638+00:00,3.485000,-0.421800,
2025-10-14T04:02:33.443638+00:00,3.490000,-0.235600,
2025-10-14T04:02:33.448638+00:00,3.495000,-0.105640,
2025-10-14T04:02:33.453638+00:00,3.500000,-0.038000,
2025-10-14T04:02:33.458638+00:00,3.505000,-0.001140,
2025-10-14T04:02:33.463638+00:00,3.510000,0.014440,
2025-10-14T04:02:33.468638+00:00,3.515000,0.018240,
2025-10-14T04:02:33.473638+00:00,3.520000,0.023560,
2025-10-14T04:02:33.478638+00:00,3.525000,0.034200,
2025-10-14T04:02:33.483638+00:00,3.530000,0.045220,
2025-10-14T04:02:33.488638+00:00,3.535000,0.059660,
2025-10-14T04:02:33.493638+00:00,3.540000,0.074480,
2025-10-14T04:02:33.498638+00:00,3.545000,0.097660,
2025-10-14T04:02:33.503638+00:00,3.550000,0.123880,
2025-10-14T04:02:33.508638+00:00,3.555000,0.141360,
2025-10-14T04:02:33.513638+00:00,3.560000,0.141360,
2025-10-14T04:02:33.518638+00:00,3.565000,0.137940,
2025-10-14T04:02:33.523638+00:00,3.570000,0.143260,
2025-10-14T04:02:33.528638+00:00,3.575000,0.161120,
2025-10-14T04:02:33.533638+00:00,3.580000,0.174040,
2025-10-14T04:02:33.538638+00:00,3.585000,0.177080,
2025-10-14T04:02:33.543638+00:00,3.590000,0.177080,
2025-10-14T04:02:33.548638+00:00,3.595000,0.187340,
2025-10-14T04:02:33.553638+00:00,3.600000,0.203300,
2025-10-14T04:02:33.558638+00:00,3.605000,0.213940,
2025-10-14T04:02:33.563638+00:00,3.610000,0.216980,
2025-10-14T04:02:33.568638+00:00,3.615000,0.221540,
2025-10-14T04:02:33.573638+00:00,3.620000,0.228000,
2025-10-14T04:02:33.578638+00:00,3.625000,0.236360,
2025-10-14T04:02:33.583638+00:00,3.630000,0.247760,
2025-10-14T04:02:33.588638+00:00,3.635000,0.259160,
2025-10-14T04:02:33.593638+00:00,3.640000,0.267520,
2025-10-14T04:02:33.598638+00:00,3.645000,0.270560,
2025-10-14T04:02:33.603638+00:00,3.650000,0.275120,
2025-10-14T04:02:33.608638+00:00,3.655000,0.281200,
2025-10-14T04:02:33.613638+00:00,3.660000,0.282340,
2025-10-14T04:02:33.618638+00:00,3.665000,0.274740,
2025-10-14T04:02:33.623638+00:00,3.670000,0.264480,
2025-10-14T04:02:33.628638+00:00,3.675000,0.258780,
2025-10-14T04:02:33.633638+00:00,3.680000,0.254980,
2025-10-14T04:02:33.638638+00:00,3.685000,0.244340,
2025-10-14T04:02:33.643638+00:00,3.690000,0.221540,
2025-10-14T04:02:33.648638+00:00,3.695000,0.193420,
2025-10-14T04:02:33.653638+00:00,3.700000,0.167200,
2025-10-14T04:02:33.658638+00:00,3.705000,0.148580,
2025-10-14T04:02:33.663638+00:00,3.710000,0.132240,
2025-10-14T04:02:33.668638+00:00,3.715000,0.114760,
2025-10-14T04:02:33.673638+00:00,3.720000,0.088920,
2025-10-14T04:02:33.678638+00:00,3.725000,0.051300,
2025-10-14T04:02:33.683638+00:00,3.730000,0.007600,
2025-10-14T04:02:33.688638+00:00,3.735000,-0.032300,
2025-10-14T04:02:33.693638+00:00,3.740000,-0.061940,
2025-10-14T04:02:33.698638+00:00,3.745000,-0.080560,
2025-10-14T04:02:33.703638+00:00,3.750000,-0.093100,
2025-10-14T04:02:33.708638+00:00,3.755000,-0.104120,
2025-10-14T04:02:33.713638+00:00,3.760000,-0.115140,
2025-10-14T04:02:33.718638+00:00,3.765000,-0.125020,
2025-10-14T04:02:33.723638+00:00,3.770000,-0.126540,
2025-10-14T04:02:33.728638+00:00,3.775000,-0.116280,
2025-10-14T04:02:33.733638+00:00,3.780000,-0.098800,
2025-10-14T04:02:33.738638+00:00,3.785000,-0.076380,
2025-10-14T04:02:33.743638+00:00,3.790000,-0.057760,
2025-10-14T04:02:33.748638+00:00,3.795000,-0.041420,
2025-10-14T04:02:33.753638+00:00,3.800000,-0.028500,
2025-10-14T04:02:33.758638+00:00,3.805000,-0.016340,
2025-10-14T04:02:33.763638+00:00,3.810000,-0.003420,
2025-10-14T04:02:33.768638+00:00,3.815000,0.011020,
2025-10-14T04:02:33.773638+00:00,3.820000,0.028120,
2025-10-14T04:02:33.778638+00:00,3.825000,0.043700,
2025-10-14T04:02:33.783638+00:00,3.830000,0.056240,
2025-10-14T04:02:33.788638+00:00,3.835000,0.067260,
2025-10-14T04:02:33.793638+00:00,3.840000,0.078660,
2025-10-14T04:02:33.798638+00:00,3.845000,0.089300,
2025-10-14T04:02:33.803638+00:00,3.850000,0.097280,
2025-10-14T04:02:33.808638+00:00,3.855000,0.102600,
2025-10-14T04:02:33.813638+00:00,3.860000,0.105640,
2025-10-14T04:02:33.818638+00:00,3.865000,0.107920,
2025-10-14T04:02:33.823638+00:00,3.870000,0.112100,
2025-10-14T04:02:33.828638+00:00,3.875000,0.118180,
2025-10-14T04:02:33.833638+00:00,3.880000,0.124640,
2025-10-14T04:02:33.838638+00:00,3.885000,0.128440,
2025-10-14T04:02:33.843638+00:00,3.890000,0.129960,
2025-10-14T04:02:33.848638+00:00,3.895000,0.131100,
2025-10-14T04:02:33.853638+00:00,3.900000,0.135660,
2025-10-14T04:02:33.858638+00:00,3.905000,0.138320,
2025-10-14T04:02:33.863638+00:00,3.910000,0.135280,
2025-10-14T04:02:33.868638+00:00,3.915000,0.124640,
2025-10-14T04:02:33.873638+00:00,3.920000,0.115900,
2025-10-14T04:02:33.878638+00:00,3.925000,0.111720,
2025-10-14T04:02:33.883638+00:00,3.930000,0.112100,
2025-10-14T04:02:33.888638+00:00,3.935000,0.111720,
2025-10-14T04:02:33.893638+00:00,3.940000,0.111720,
2025-10-14T04:02:33.898638+00:00,3.945000,0.108680,
2025-10-14T04:02:33.903638+00:00,3.950000,0.105260,
2025-10-14T04:02:33.908638+00:00,3.955000,0.104880,
2025-10-14T04:02:33.913638+00:00,3.960000,0.107540,
2025-10-14T04:02:33.918638+00:00,3.965000,0.111720,
2025-10-14T04:02:33.923638+00:00,3.970000,0.114000,
2025-10-14T04:02:33.928638+00:00,3.975000,0.110580,
2025-10-14T04:02:33.933638+00:00,3.980000,0.104120,
2025-10-14T04:02:33.938638+00:00,3.985000,0.095760,
2025-10-14T04:02:33.943638+00:00,3.990000,0.085120,
2025-10-14T04:02:33.948638+00:00,3.995000,0.077140,
2025-10-14T04:02:33.953638+00:00,4.000000,0.076760,
2025-10-14T04:02:33.958638+00:00,4.005000,0.080560,
2025-10-14T04:02:33.963638+00:00,4.010000,0.079420,
2025-10-14T04:02:33.968638+00:00,4.015000,0.069160,
2025-10-14T04:02:33.973638+00:00,4.020000,0.055860,
2025-10-14T04:02:33.978638+00:00,4.025000,0.048260,
2025-10-14T04:02:33.983638+00:00,4.030000,0.049400,
2025-10-14T04:02:33.988638+00:00,4.035000,0.052440,
2025-10-14T04:02:33.993638+00:00,4.040000,0.053580,
2025-10-14T04:02:33.998638+00:00,4.045000,0.050540,
2025-10-14T04:02:34.003638+00:00,4.050000,0.045600,
2025-10-14T04:02:34.008638+00:00,4.055000,0.040280,
2025-10-14T04:02:34.013638+00:00,4.060000,0.038000,
2025-10-14T04:02:34.018638+00:00,4.065000,0.039140,
2025-10-14T04:02:34.023638+00:00,4.070000,0.040280,
2025-10-14T04:02:34.028638+00:00,4.075000,0.036480,
2025-10-14T04:02:34.033638+00:00,4.080000,0.025460,
2025-10-14T04:02:34.038638+00:00,4.085000,0.015960,
2025-10-14T04:02:34.043638+00:00,4.090000,0.012540,
2025-10-14T04:02:34.048638+00:00,4.095000,0.013680,
2025-10-14T04:02:34.053638+00:00,4.100000,0.014440,
2025-10-14T04:02:34.058638+00:00,4.105000,0.018240,
2025-10-14T04:02:34.063638+00:00,4.110000,0.032680,
2025-10-14T04:02:34.068638+00:00,4.115000,0.053960,
2025-10-14T04:02:34.073638+00:00,4.120000,0.070300,
2025-10-14T04:02:34.078638+00:00,4.125000,0.071060,
2025-10-14T04:02:34.083638+00:00,4.130000,0.059660,
2025-10-14T04:02:34.088638+00:00,4.135000,0.041800,
2025-10-14T04:02:34.093638+00:00,4.140000,0.032680,
2025-10-14T04:02:34.098638+00:00,4.145000,0.038760,
2025-10-14T04:02:34.103638+00:00,4.150000,0.055100,
2025-10-14T04:02:34.108638+00:00,4.155000,0.068780,
2025-10-14T04:02:34.113638+00:00,4.160000,0.072200,
2025-10-14T04:02:34.118638+00:00,4.165000,0.066880,
2025-10-14T04:02:34.123638+00:00,4.170000,0.061180,
2025-10-14T04:02:34.128638+00:00,4.175000,0.058140,
2025-10-14T04:02:34.133638+00:00,4.180000,0.053960,
2025-10-14T04:02:34.138638+00:00,4.185000,0.048260,
2025-10-14T04:02:34.143638+00:00,4.190000,0.041800,
2025-10-14T04:02:34.148638+00:00,4.195000,0.033820,
2025-10-14T04:02:34.153638+00:00,4.200000,0.021660,
2025-10-14T04:02:34.158638+00:00,4.205000,0.004180,
2025-10-14T04:02:34.163638+00:00,4.210000,-0.012160,
2025-10-14T04:02:34.168638+00:00,4.215000,-0.016720,
2025-10-14T04:02:34.173638+00:00,4.220000,-0.010640,
2025-10-14T04:02:34.178638+00:00,4.225000,-0.003420,
2025-10-14T04:02:34.183638+00:00,4.230000,-0.004940,
2025-10-14T04:02:34.188638+00:00,4.235000,-0.012160,
2025-10-14T04:02:34.193638+00:00,4.240000,-0.013680,
2025-10-14T04:02:34.198638+00:00,4.245000,-0.006840,
2025-10-14T04:02:34.203638+00:00,4.250000,0.005320,
2025-10-14T04:02:34.208638+00:00,4.255000,0.010640,
2025-10-14T04:02:34.213638+00:00,4.260000,0.007220,
2025-10-14T04:02:34.218638+00:00,4.265000,0.000760,
2025-10-14T04:02:34.223638+00:00,4.270000,-0.003800,
2025-10-14T04:02:34.228638+00:00,4.275000,-0.006080,
2025-10-14T04:02:34.233638+00:00,4.280000,-0.009880,
2025-10-14T04:02:34.238638+00:00,4.285000,-0.012540,
2025-10-14T04:02:34.243638+00:00,4.290000,-0.004560,
2025-10-14T04:02:34.248638+00:00,4.295000,0.015200,
2025-10-14T04:02:34.253638+00:00,4.300000,0.021660,
2025-10-14T04:02:34.258638+00:00,4.305000,0.007220,
2025-10-14T04:02:34.263638+00:00,4.310000,0.016720,
2025-10-14T04:02:34.268638+00:00,4.315000,0.123500,
2025-10-14T04:02:34.273638+00:00,4.320000,0.347700,
2025-10-14T04:02:34.278638+00:00,4.325000,0.629280,
2025-10-14T04:02:34.283638+00:00,4.330000,0.808640,
2025-10-14T04:02:34.288638+00:00,4.335000,0.705660,
2025-10-14T04:02:34.293638+00:00,4.340000,0.293740,
2025-10-14T04:02:34.298638+00:00,4.345000,-0.220400,
2025-10-14T04:02:34.303638+00:00,4.350000,-0.552520,
2025-10-14T04:02:34.308638+00:00,4.355000,-0.584060,
2025-10-14T04:02:34.313638+00:00,4.360000,-0.433580,
2025-10-14T04:02:34.318638+00:00,4.365000,-0.285380,
2025-10-14T04:02:34.323638+00:00,4.370000,-0.204060,
2025-10-14T04:02:34.328638+00:00,4.375000,-0.151240,
2025-10-14T04:02:34.333638+00:00,4.380000,-0.102980,
2025-10-14T04:02:34.338638+00:00,4.385000,-0.067640,
2025-10-14T04:02:34.343638+00:00,4.390000,-0.047880,
2025-10-14T04:02:34.348638+00:00,4.395000,-0.035340,
2025-10-14T04:02:34.353638+00:00,4.400000,-0.023560,
2025-10-14T04:02:34.358638+00:00,4.405000,-0.004940,
2025-10-14T04:02:34.363638+00:00,4.410000,0.011400,
2025-10-14T04:02:34.368638+00:00,4.415000,0.021660,
2025-10-14T04:02:34.373638+00:00,4.420000,0.023940,
2025-10-14T04:02:34.378638+00:00,4.425000,0.025460,
2025-10-14T04:02:34.383638+00:00,4.430000,0.034960,
2025-10-14T04:02:34.388638+00:00,4.435000,0.051680,
2025-10-14T04:02:34.393638+00:00,4.440000,0.065740,
2025-10-14T04:02:34.398638+00:00,4.445000,0.064600,
2025-10-14T04:02:34.403638+00:00,4.450000,0.053960,
2025-10-14T04:02:34.408638+00:00,4.455000,0.050160,
2025-10-14T04:02:34.413638+00:00,4.460000,0.064220,
2025-10-14T04:02:34.418638+00:00,4.465000,0.084740,
2025-10-14T04:02:34.423638+00:00,4.470000,0.089680,
2025-10-14T04:02:34.428638+00:00,4.475000,0.077900,
2025-10-14T04:02:34.433638+00:00,4.480000,0.061180,
2025-10-14T04:02:34.438638+00:00,4.485000,0.057760,
2025-10-14T04:02:34.443638+00:00,4.490000,0.072200,
2025-10-14T04:02:34.448638+00:00,4.495000,0.092340,
2025-10-14T04:02:34.453638+00:00,4.500000,0.106400,
2025-10-14T04:02:34.458638+00:00,4.505000,0.106020,
2025-10-14T04:02:34.463638+00:00,4.510000,0.099180,
2025-10-14T04:02:34.468638+00:00,4.515000,0.097660,
2025-10-14T04:02:34.473638+00:00,4.520000,0.103360,
2025-10-14T04:02:34.478638+00:00,4.525000,0.110960,
2025-10-14T04:02:34.483638+00:00,4.530000,0.112480,
2025-10-14T04:02:34.488638+00:00,4.535000,0.109060,
2025-10-14T04:02:34.493638+00:00,4.540000,0.108300,
2025-10-14T04:02:34.498638+00:00,4.545000,0.111720,
2025-10-14T04:02:34.503638+00:00,4.550000,0.115900,
2025-10-14T04:02:34.508638+00:00,4.555000,0.109820,
2025-10-14T04:02:34.513638+00:00,4.560000,0.090820,
2025-10-14T04:02:34.518638+00:00,4.565000,0.068780,
2025-10-14T04:02:34.523638+00:00,4.570000,0.052820,
2025-10-14T04:02:34.528638+00:00,4.575000,0.041040,
2025-10-14T04:02:34.533638+00:00,4.580000,0.021660,
2025-10-14T04:02:34.538638+00:00,4.585000,-0.004180,
2025-10-14T04:02:34.543638+00:00,4.590000,-0.030400,
2025-10-14T04:02:34.548638+00:00,4.595000,-0.050540,
2025-10-14T04:02:34.553638+00:00,4.600000,-0.074100,
2025-10-14T04:02:34.558638+00:00,4.605000,-0.107160,
2025-10-14T04:02:34.563638+00:00,4.610000,-0.148960,
2025-10-14T04:02:34.568638+00:00,4.615000,-0.188100,
2025-10-14T04:02:34.573638+00:00,4.620000,-0.217740,
2025-10-14T04:02:34.578638+00:00,4.625000,-0.239780,
2025-10-14T04:02:34.583638+00:00,4.630000,-0.254600,
2025-10-14T04:02:34.588638+00:00,4.635000,-0.264100,
2025-10-14T04:02:34.593638+00:00,4.640000,-0.267140,
2025-10-14T04:02:34.598638+00:00,4.645000,-0.261820,
2025-10-14T04:02:34.603638+00:00,4.650000,-0.247760,
2025-10-14T04:02:34.608638+00:00,4.655000,-0.228380,
2025-10-14T04:02:34.613638+00:00,4.660000,-0.213560,
2025-10-14T04:02:34.618638+00:00,4.665000,-0.203680,
2025-10-14T04:02:34.623638+00:00,4.670000,-0.189240,
2025-10-14T04:02:34.628638+00:00,4.675000,-0.164540,
2025-10-14T04:02:34.633638+00:00,4.680000,-0.133760,
2025-10-14T04:02:34.638638+00:00,4.685000,-0.107540,
2025-10-14T04:02:34.643638+00:00,4.690000,-0.087020,
2025-10-14T04:02:34.648638+00:00,4.695000,-0.072200,
2025-10-14T04:02:34.653638+00:00,4.700000,-0.060420,
2025-10-14T04:02:34.658638+00:00,4.705000,-0.049780,
2025-10-14T04:02:34.663638+00:00,4.710000,-0.039900,
2025-10-14T04:02:34.668638+00:00,4.715000,-0.034200,
2025-10-14T04:02:34.673638+00:00,4.720000,-0.039140,
2025-10-14T04:02:34.678638+00:00,4.725000,-0.054720,
2025-10-14T04:02:34.683638+00:00,4.730000,-0.075240,
2025-10-14T04:02:34.688638+00:00,4.735000,-0.087780,
2025-10-14T04:02:34.693638+00:00,4.740000,-0.088920,
2025-10-14T04:02:34.698638+00:00,4.745000,-0.082080,
2025-10-14T04:02:34.703638+00:00,4.750000,-0.071820,
2025-10-14T04:02:34.708638+00:00,4.755000,-0.067260,
2025-10-14T04:02:34.713638+00:00,4.760000,-0.069160,
2025-10-14T04:02:34.718638+00:00,4.765000,-0.074100,
2025-10-14T04:02:34.723638+00:00,4.770000,-0.082460,
2025-10-14T04:02:34.728638+00:00,4.775000,-0.094620,
2025-10-14T04:02:34.733638+00:00,4.780000,-0.110960,
2025-10-14T04:02:34.738638+00:00,4.785000,-0.120460,
2025-10-14T04:02:34.743638+00:00,4.790000,-0.119320,
2025-10-14T04:02:34.748638+00:00,4.795000,-0.111340,
2025-10-14T04:02:34.753638+00:00,4.800000,-0.104500,
2025-10-14T04:02:34.758638+00:00,4.805000,-0.103360,
2025-10-14T04:02:34.763638+00:00,4.810000,-0.108300,
2025-10-14T04:02:34.768638+00:00,4.815000,-0.117040,
2025-10-14T04:02:34.773638+00:00,4.820000,-0.128060,
2025-10-14T04:02:34.778638+00:00,4.825000,-0.140980,
2025-10-14T04:02:34.783638+00:00,4.830000,-0.156940,
2025-10-14T04:02:34.788638+00:00,4.835000,-0.171380,
2025-10-14T04:02:34.793638+00:00,4.840000,-0.181640,
2025-10-14T04:02:34.798638+00:00,4.845000,-0.187340,
2025-10-14T04:02:34.803638+00:00,4.850000,-0.192280,
2025-10-14T04:02:34.808638+00:00,4.855000,-0.201020,
2025-10-14T04:02:34.813638+00:00,4.860000,-0.214700,
2025-10-14T04:02:34.818638+00:00,4.865000,-0.222300,
2025-10-14T04:02:34.823638+00:00,4.870000,-0.221160,
2025-10-14T04:02:34.828638+00:00,4.875000,-0.215080,
2025-10-14T04:02:34.833638+00:00,4.880000,-0.218120,
2025-10-14T04:02:34.838638+00:00,4.885000,-0.230280,
2025-10-14T04:02:34.843638+00:00,4.890000,-0.247380,
2025-10-14T04:02:34.848638+00:00,4.895000,-0.266000,
2025-10-14T04:02:34.853638+00:00,4.900000,-0.287280,
2025-10-14T04:02:34.858638+00:00,4.905000,-0.314260,
2025-10-14T04:02:34.863638+00:00,4.910000,-0.343900,
2025-10-14T04:02:34.868638+00:00,4.915000,-0.379240,
2025-10-14T04:02:34.873638+00:00,4.920000,-0.434340,
2025-10-14T04:02:34.878638+00:00,4.925000,-0.504260,
2025-10-14T04:02:34.883638+00:00,4.930000,-0.561260,
2025-10-14T04:02:34.888638+00:00,4.935000,-0.563540,
2025-10-14T04:02:34.893638+00:00,4.940000,-0.500840,
2025-10-14T04:02:34.898638+00:00,4.945000,-0.406220,
2025-10-14T04:02:34.903638+00:00,4.950000,-0.313120,
2025-10-14T04:02:34.908638+00:00,4.955000,-0.215460,
2025-10-14T04:02:34.913638+00:00,4.960000,-0.083980,
2025-10-14T04:02:34.918638+00:00,4.965000,0.088540,
2025-10-14T04:02:34.923638+00:00,4.970000,0.275500,
2025-10-14T04:02:34.928638+00:00,4.975000,0.440040,
2025-10-14T04:02:34.933638+00:00,4.980000,0.563920,
2025-10-14T04:02:34.938638+00:00,4.985000,0.650940,
2025-10-14T04:02:34.943638+00:00,4.990000,0.705660,
2025-10-14T04:02:34.948638+00:00,4.995000,0.716680,
2025-10-14T04:02:34.953638+00:00,5.000000,0.672220,
2025-10-14T04:02:34.958638+00:00,5.005000,0.571140,
2025-10-14T04:02:34.963638+00:00,5.010000,0.437000,
2025-10-14T04:02:34.968638+00:00,5.015000,0.301720,
2025-10-14T04:02:34.973638+00:00,5.020000,0.189620,
2025-10-14T04:02:34.978638+00:00,5.025000,0.108300,
2025-10-14T04:02:34.983638+00:00,5.030000,0.053960,
2025-10-14T04:02:34.988638+00:00,5.035000,0.026220,
2025-10-14T04:02:34.993638+00:00,5.040000,0.018240,
2025-10-14T04:02:34.998638+00:00,5.045000,0.018240,
2025-10-14T04:02:35.003638+00:00,5.050000,0.010640,
2025-10-14T04:02:35.008638+00:00,5.055000,-0.009880,
2025-10-14T04:02:35.013638+00:00,5.060000,-0.030780,
2025-10-14T04:02:35.018638+00:00,5.065000,-0.044840,
2025-10-14T04:02:35.023638+00:00,5.070000,-0.045220,
2025-10-14T04:02:35.028638+00:00,5.075000,-0.033440,
2025-10-14T04:02:35.033638+00:00,5.080000,-0.015580,
2025-10-14T04:02:35.038638+00:00,5.085000,-0.006840,
2025-10-14T04:02:35.043638+00:00,5.090000,-0.014820,
2025-10-14T04:02:35.048638+00:00,5.095000,-0.038000,
2025-10-14T04:02:35.053638+00:00,5.100000,-0.061180,
2025-10-14T04:02:35.058638+00:00,5.105000,-0.079040,
2025-10-14T04:02:35.063638+00:00,5.110000,-0.099560,
2025-10-14T04:02:35.068638+00:00,5.115000,-0.134900,
2025-10-14T04:02:35.073638+00:00,5.120000,-0.182020,
2025-10-14T04:02:35.078638+00:00,5.125000,-0.230280,
2025-10-14T04:02:35.083638+00:00,5.130000,-0.274740,
2025-10-14T04:02:35.088638+00:00,5.135000,-0.320340,
2025-10-14T04:02:35.093638+00:00,5.140000,-0.366700,
2025-10-14T04:02:35.098638+00:00,5.145000,-0.404320,
2025-10-14T04:02:35.103638+00:00,5.150000,-0.425980,
2025-10-14T04:02:35.108638+00:00,5.155000,-0.426740,
2025-10-14T04:02:35.113638+00:00,5.160000,-0.415340,
2025-10-14T04:02:35.118638+00:00,5.165000,-0.392160,
2025-10-14T04:02:35.123638+00:00,5.170000,-0.362140,
2025-10-14T04:02:35.128638+00:00,5.175000,-0.329460,
2025-10-14T04:02:35.133638+00:00,5.180000,-0.296780,
2025-10-14T04:02:35.138638+00:00,5.185000,-0.257640,
2025-10-14T04:02:35.143638+00:00,5.190000,-0.213560,
2025-10-14T04:02:35.148638+00:00,5.195000,-0.178980,
2025-10-14T04:02:35.153638+00:00,5.200000,-0.155800,
2025-10-14T04:02:35.158638+00:00,5.205000,-0.098420,
2025-10-14T04:02:35.163638+00:00,5.210000,0.044460,
2025-10-14T04:02:35.168638+00:00,5.215000,0.291460,
2025-10-14T04:02:35.173638+00:00,5.220000,0.577980,
2025-10-14T04:02:35.178638+00:00,5.225000,0.736820,
2025-10-14T04:02:35.183638+00:00,5.230000,0.597740,
2025-10-14T04:02:35.188638+00:00,5.235000,0.163780,
2025-10-14T04:02:35.193638+00:00,5.240000,-0.327180,
2025-10-14T04:02:35.198638+00:00,5.245000,-0.592800,
2025-10-14T04:02:35.203638+00:00,5.250000,-0.548340,
2025-10-14T04:02:35.208638+00:00,5.255000,-0.338580,
2025-10-14T04:02:35.213638+00:00,5.260000,-0.141740,
2025-10-14T04:02:35.218638+00:00,5.265000,-0.011400,
2025-10-14T04:02:35.223638+00:00,5.270000,0.081700,
2025-10-14T04:02:35.228638+00:00,5.275000,0.147060,
2025-10-14T04:02:35.233638+00:00,5.280000,0.184680,
2025-10-14T04:02:35.238638+00:00,5.285000,0.204060,
2025-10-14T04:02:35.243638+00:00,5.290000,0.215460,
2025-10-14T04:02:35.248638+00:00,5.295000,0.219260,
2025-10-14T04:02:35.253638+00:00,5.300000,0.214700,
2025-10-14T04:02:35.258638+00:00,5.305000,0.200640,
2025-10-14T04:02:35.263638+00:00,5.310000,0.178220,
2025-10-14T04:02:35.268638+00:00,5.315000,0.152380,
2025-10-14T04:02:35.273638+00:00,5.320000,0.123120,
2025-10-14T04:02:35.278638+00:00,5.325000,0.088540,
2025-10-14T04:02:35.283638+00:00,5.330000,0.048260,
2025-10-14T04:02:35.288638+00:00,5.335000,0.004560,
2025-10-14T04:02:35.293638+00:00,5.340000,-0.033440,
2025-10-14T04:02:35.298638+00:00,5.345000,-0.053580,
2025-10-14T04:02:35.303638+00:00,5.350000,-0.046740,
2025-10-14T04:02:35.308638+00:00,5.355000,-0.013680,
2025-10-14T04:02:35.313638+00:00,5.360000,0.033440,
2025-10-14T04:02:35.318638+00:00,5.365000,0.075240,
2025-10-14T04:02:35.323638+00:00,5.370000,0.102600,
2025-10-14T04:02:35.328638+00:00,5.375000,0.113620,
2025-10-14T04:02:35.333638+00:00,5.380000,0.114000,
2025-10-14T04:02:35.338638+00:00,5.385000,0.106780,
2025-10-14T04:02:35.343638+00:00,5.390000,0.096140,
2025-10-14T04:02:35.348638+00:00,5.395000,0.084360,
2025-10-14T04:02:35.353638+00:00,5.400000,0.071820,
2025-10-14T04:02:35.358638+00:00,5.405000,0.061940,
2025-10-14T04:02:35.363638+00:00,5.410000,0.050540,
2025-10-14T04:02:35.368638+00:00,5.415000,0.036480,
2025-10-14T04:02:35.373638+00:00,5.420000,0.021280,
2025-10-14T04:02:35.378638+00:00,5.425000,0.004180,
2025-10-14T04:02:35.383638+00:00,5.430000,-0.009880,
2025-10-14T04:02:35.388638+00:00,5.435000,-0.023940,
2025-10-14T04:02:35.393638+00:00,5.440000,-0.040660,
2025-10-14T04:02:35.398638+00:00,5.445000,-0.060800,
2025-10-14T04:02:35.403638+00:00,5.450000,-0.079800,
2025-10-14T04:02:35.408638+00:00,5.455000,-0.101840,
2025-10-14T04:02:35.413638+00:00,5.460000,-0.122360,
2025-10-14T04:02:35.418638+00:00,5.465000,-0.145160,
2025-10-14T04:02:35.423638+00:00,5.470000,-0.167960,
2025-10-14T04:02:35.428638+00:00,5.475000,-0.188860,
2025-10-14T04:02:35.433638+00:00,5.480000,-0.206340,
2025-10-14T04:02:35.438638+00:00,5.485000,-0.220400,
2025-10-14T04:02:35.443638+00:00,5.490000,-0.237880,
2025-10-14T04:02:35.448638+00:00,5.495000,-0.259540,
2025-10-14T04:02:35.453638+00:00,5.500000,-0.283100,
2025-10-14T04:02:35.458638+00:00,5.505000,-0.304380,
2025-10-14T04:02:35.463638+00:00,5.510000,-0.319960,
2025-10-14T04:02:35.468638+00:00,5.515000,-0.330980,
2025-10-14T04:02:35.473638+00:00,5.520000,-0.336300,
2025-10-14T04:02:35.478638+00:00,5.525000,-0.340100,
2025-10-14T04:02:35.483638+00:00,5.530000,-0.339720,
2025-10-14T04:02:35.488638+00:00,5.535000,-0.335540,
2025-10-14T04:02:35.493638+00:00,5.540000,-0.329080,
2025-10-14T04:02:35.498638+00:00,5.545000,-0.319580,
2025-10-14T04:02:35.503638+00:00,5.550000,-0.310080,
2025-10-14T04:02:35.508638+00:00,5.555000,-0.303240,
2025-10-14T04:02:35.513638+00:00,5.560000,-0.299820,
2025-10-14T04:02:35.518638+00:00,5.565000,-0.299440,
2025-10-14T04:02:35.523638+00:00,5.570000,-0.293740,
2025-10-14T04:02:35.528638+00:00,5.575000,-0.284240,
2025-10-14T04:02:35.533638+00:00,5.580000,-0.271700,
2025-10-14T04:02:35.538638+00:00,5.585000,-0.262960,
2025-10-14T04:02:35.543638+00:00,5.590000,-0.257640,
2025-10-14T04:02:35.548638+00:00,5.595000,-0.251940,
2025-10-14T04:02:35.553638+00:00,5.600000,-0.234840,
2025-10-14T04:02:35.558638+00:00,5.605000,-0.212420,
2025-10-14T04:02:35.563638+00:00,5.610000,-0.194180,
2025-10-14T04:02:35.568638+00:00,5.615000,-0.190760,
2025-10-14T04:02:35.573638+00:00,5.620000,-0.195320,
2025-10-14T04:02:35.578638+00:00,5.625000,-0.191900,
2025-10-14T04:02:35.583638+00:00,5.630000,-0.183540,
2025-10-14T04:02:35.588638+00:00,5.635000,-0.180880,
2025-10-14T04:02:35.593638+00:00,5.640000,-0.193040,
2025-10-14T04:02:35.598638+00:00,5.645000,-0.208620,
2025-10-14T04:02:35.603638+00:00,5.650000,-0.214320,
2025-10-14T04:02:35.608638+00:00,5.655000,-0.209000,
2025-10-14T04:02:35.613638+00:00,5.660000,-0.205200,
2025-10-14T04:02:35.618638+00:00,5.665000,-0.212420,
2025-10-14T04:02:35.623638+00:00,5.670000,-0.221160,
2025-10-14T04:02:35.628638+00:00,5.675000,-0.213560,
2025-10-14T04:02:35.633638+00:00,5.680000,-0.191520,
2025-10-14T04:02:35.638638+00:00,5.685000,-0.169860,
2025-10-14T04:02:35.643638+00:00,5.690000,-0.163020,
2025-10-14T04:02:35.648638+00:00,5.695000,-0.165300,
2025-10-14T04:02:35.653638+00:00,5.700000,-0.156940,
2025-10-14T04:02:35.658638+00:00,5.705000,-0.128060,
2025-10-14T04:02:35.663638+00:00,5.710000,-0.095000,
2025-10-14T04:02:35.668638+00:00,5.715000,-0.068020,
2025-10-14T04:02:35.673638+00:00,5.720000,-0.049020,
2025-10-14T04:02:35.678638+00:00,5.725000,-0.031540,
2025-10-14T04:02:35.683638+00:00,5.730000,-0.011780,
2025-10-14T04:02:35.688638+00:00,5.735000,0.002660,
2025-10-14T04:02:35.693638+00:00,5.740000,0.010260,
2025-10-14T04:02:35.698638+00:00,5.745000,0.011400,
2025-10-14T04:02:35.703638+00:00,5.750000,0.013680,
2025-10-14T04:02:35.708638+00:00,5.755000,0.016720,
2025-10-14T04:02:35.713638+00:00,5.760000,0.021280,
2025-10-14T04:02:35.718638+00:00,5.765000,0.024320,
2025-10-14T04:02:35.723638+00:00,5.770000,0.028880,
2025-10-14T04:02:35.728638+00:00,5.775000,0.032300,
2025-10-14T04:02:35.733638+00:00,5.780000,0.038380,
2025-10-14T04:02:35.738638+00:00,5.785000,0.044460,
2025-10-14T04:02:35.743638+00:00,5.790000,0.049400,
2025-10-14T04:02:35.748638+00:00,5.795000,0.053200,
2025-10-14T04:02:35.753638+00:00,5.800000,0.056620,
2025-10-14T04:02:35.758638+00:00,5.805000,0.057760,
2025-10-14T04:02:35.763638+00:00,5.810000,0.053960,
2025-10-14T04:02:35.768638+00:00,5.815000,0.046740,
2025-10-14T04:02:35.773638+00:00,5.820000,0.043320,
2025-10-14T04:02:35.778638+00:00,5.825000,0.045600,
2025-10-14T04:02:35.783638+00:00,5.830000,0.045980,
2025-10-14T04:02:35.788638+00:00,5.835000,0.042560,
2025-10-14T04:02:35.793638+00:00,5.840000,0.038760,
2025-10-14T04:02:35.798638+00:00,5.845000,0.036100,
2025-10-14T04:02:35.803638+00:00,5.850000,0.033060,
2025-10-14T04:02:35.808638+00:00,5.855000,0.024320,
2025-10-14T04:02:35.813638+00:00,5.860000,0.012160,
2025-10-14T04:02:35.818638+00:00,5.865000,0.002280,
2025-10-14T04:02:35.823638+00:00,5.870000,0.000000,
2025-10-14T04:02:35.828638+00:00,5.875000,0.003800,
2025-10-14T04:02:35.833638+00:00,5.880000,0.004940,
2025-10-14T04:02:35.838638+00:00,5.885000,0.001520,
2025-10-14T04:02:35.843638+00:00,5.890000,-0.008360,
2025-10-14T04:02:35.848638+00:00,5.895000,-0.017480,
2025-10-14T04:02:35.853638+00:00,5.900000,-0.023180,
2025-10-14T04:02:35.858638+00:00,5.905000,-0.028880,
2025-10-14T04:02:35.863638+00:00,5.910000,-0.033060,
2025-10-14T04:02:35.868638+00:00,5.915000,-0.036860,
2025-10-14T04:02:35.873638+00:00,5.920000,-0.040660,
2025-10-14T04:02:35.878638+00:00,5.925000,-0.050540,
2025-10-14T04:02:35.883638+00:00,5.930000,-0.058900,
2025-10-14T04:02:35.888638+00:00,5.935000,-0.062320,
2025-10-14T04:02:35.893638+00:00,5.940000,-0.057380,
2025-10-14T04:02:35.898638+00:00,5.945000,-0.048640,
2025-10-14T04:02:35.903638+00:00,5.950000,-0.040660,
2025-10-14T04:02:35.908638+00:00,5.955000,-0.033060,
2025-10-14T04:02:35.913638+00:00,5.960000,-0.025840,
2025-10-14T04:02:35.918638+00:00,5.965000,-0.020900,
2025-10-14T04:02:35.923638+00:00,5.970000,-0.019380,
2025-10-14T04:02:35.928638+00:00,5.975000,-0.019760,
2025-10-14T04:02:35.933638+00:00,5.980000,-0.023940,
2025-10-14T04:02:35.938638+00:00,5.985000,-0.031920,
2025-10-14T04:02:35.943638+00:00,5.990000,-0.038760,
2025-10-14T04:02:35.948638+00:00,5.995000,-0.035720,
2025-10-14T04:02:35.953638+00:00,6.000000,-0.025460,
2025-10-14T04:02:35.958638+00:00,6.005000,-0.022040,
2025-10-14T04:02:35.963638+00:00,6.010000,-0.027740,
2025-10-14T04:02:35.968638+00:00,6.015000,-0.026980,
2025-10-14T04:02:35.973638+00:00,6.020000,-0.016720,
2025-10-14T04:02:35.978638+00:00,6.025000,-0.007600,
2025-10-14T04:02:35.983638+00:00,6.030000,0.008740,
2025-10-14T04:02:35.988638+00:00,6.035000,0.082460,
2025-10-14T04:02:35.993638+00:00,6.040000,0.252700,
2025-10-14T04:02:35.998638+00:00,6.045000,0.515660,
2025-10-14T04:02:36.003638+00:00,6.050000,0.764560,
2025-10-14T04:02:36.008638+00:00,6.055000,0.802180,
2025-10-14T04:02:36.013638+00:00,6.060000,0.512240,
2025-10-14T04:02:36.018638+00:00,6.065000,0.003800,
2025-10-14T04:02:36.023638+00:00,6.070000,-0.434340,
2025-10-14T04:02:36.028638+00:00,6.075000,-0.586720,
2025-10-14T04:02:36.033638+00:00,6.080000,-0.482600,
2025-10-14T04:02:36.038638+00:00,6.085000,-0.311220,
2025-10-14T04:02:36.043638+00:00,6.090000,-0.199120,
2025-10-14T04:02:36.048638+00:00,6.095000,-0.139080,
2025-10-14T04:02:36.053638+00:00,6.100000,-0.088540,
2025-10-14T04:02:36.058638+00:00,6.105000,-0.042560,
2025-10-14T04:02:36.063638+00:00,6.110000,-0.006460,
2025-10-14T04:02:36.068638+00:00,6.115000,0.015200,
2025-10-14T04:02:36.073638+00:00,6.120000,0.022800,
2025-10-14T04:02:36.078638+00:00,6.125000,0.028880,
2025-10-14T04:02:36.083638+00:00,6.130000,0.038000,
2025-10-14T04:02:36.088638+00:00,6.135000,0.042180,
2025-10-14T04:02:36.093638+00:00,6.140000,0.035340,
2025-10-14T04:02:36.098638+00:00,6.145000,0.031160,
2025-10-14T04:02:36.103638+00:00,6.150000,0.039140,
2025-10-14T04:02:36.108638+00:00,6.155000,0.054720,
2025-10-14T04:02:36.113638+00:00,6.160000,0.063840,
2025-10-14T04:02:36.118638+00:00,6.165000,0.058140,
2025-10-14T04:02:36.123638+00:00,6.170000,0.049780,
2025-10-14T04:02:36.128638+00:00,6.175000,0.050160,
2025-10-14T04:02:36.133638+00:00,6.180000,0.057380,
2025-10-14T04:02:36.138638+00:00,6.185000,0.061560,
2025-10-14T04:02:36.143638+00:00,6.190000,0.060420,
2025-10-14T04:02:36.148638+00:00,6.195000,0.054720,
2025-10-14T04:02:36.153638+00:00,6.200000,0.047500,
2025-10-14T04:02:36.158638+00:00,6.205000,0.038760,
2025-10-14T04:02:36.163638+00:00,6.210000,0.031920,
2025-10-14T04:02:36.168638+00:00,6.215000,0.026980,
2025-10-14T04:02:36.173638+00:00,6.220000,0.023940,
2025-10-14T04:02:36.178638+00:00,6.225000,0.025460,
2025-10-14T04:02:36.183638+00:00,6.230000,0.028500,
2025-10-14T04:02:36.188638+00:00,6.235000,0.036100,
2025-10-14T04:02:36.193638+00:00,6.240000,0.049020,
2025-10-14T04:02:36.198638+00:00,6.245000,0.066120,
2025-10-14T04:02:36.203638+00:00,6.250000,0.083980,
2025-10-14T04:02:36.208638+00:00,6.255000,0.101840,
2025-10-14T04:02:36.213638+00:00,6.260000,0.123120,
2025-10-14T04:02:36.218638+00:00,6.265000,0.147820,
2025-10-14T04:02:36.223638+00:00,6.270000,0.174040,
2025-10-14T04:02:36.228638+00:00,6.275000,0.190760,
2025-10-14T04:02:36.233638+00:00,6.280000,0.194940,
2025-10-14T04:02:36.238638+00:00,6.285000,0.186960,
2025-10-14T04:02:36.243638+00:00,6.290000,0.173660,
2025-10-14T04:02:36.248638+00:00,6.295000,0.156560,
2025-10-14T04:02:36.253638+00:00,6.300000,0.131100,
2025-10-14T04:02:36.258638+00:00,6.305000,0.102220,
2025-10-14T04:02:36.263638+00:00,6.310000,0.070680,
2025-10-14T04:02:36.268638+00:00,6.315000,0.045220,
2025-10-14T04:02:36.273638+00:00,6.320000,0.020900,
2025-10-14T04:02:36.278638+00:00,6.325000,-0.004560,
2025-10-14T04:02:36.283638+00:00,6.330000,-0.033440,
2025-10-14T04:02:36.288638+00:00,6.335000,-0.061560,
2025-10-14T04:02:36.293638+00:00,6.340000,-0.084740,
2025-10-14T04:02:36.298638+00:00,6.345000,-0.098800,
2025-10-14T04:02:36.303638+00:00,6.350000,-0.106780,
2025-10-14T04:02:36.308638+00:00,6.355000,-0.110960,
2025-10-14T04:02:36.313638+00:00,6.360000,-0.109820,
2025-10-14T04:02:36.318638+00:00,6.365000,-0.104880,
2025-10-14T04:02:36.323638+00:00,6.370000,-0.093100,
2025-10-14T04:02:36.328638+00:00,6.375000,-0.076000,
2025-10-14T04:02:36.333638+00:00,6.380000,-0.060040,
2025-10-14T04:02:36.338638+00:00,6.385000,-0.052820,
2025-10-14T04:02:36.343638+00:00,6.390000,-0.047500,
2025-10-14T04:02:36.348638+00:00,6.395000,-0.041040,
2025-10-14T04:02:36.353638+00:00,6.400000,-0.037240,
2025-10-14T04:02:36.358638+00:00,6.405000,-0.042940,
2025-10-14T04:02:36.363638+00:00,6.410000,-0.057380,
2025-10-14T04:02:36.368638+00:00,6.415000,-0.071060,
2025-10-14T04:02:36.373638+00:00,6.420000,-0.073340,
2025-10-14T04:02:36.378638+00:00,6.425000,-0.067640,
2025-10-14T04:02:36.383638+00:00,6.430000,-0.059280,
2025-10-14T04:02:36.388638+00:00,6.435000,-0.052820,
2025-10-14T04:02:36.393638+00:00,6.440000,-0.049780,
2025-10-14T04:02:36.398638+00:00,6.445000,-0.051680,
2025-10-14T04:02:36.403638+00:00,6.450000,-0.054720,
2025-10-14T04:02:36.408638+00:00,6.455000,-0.051300,
2025-10-14T04:02:36.413638+00:00,6.460000,-0.037620,
2025-10-14T04:02:36.418638+00:00,6.465000,-0.026600,
2025-10-14T04:02:36.423638+00:00,6.470000,-0.023180,
2025-10-14T04:02:36.428638+00:00,6.475000,-0.022420,
2025-10-14T04:02:36.433638+00:00,6.480000,-0.018620,
2025-10-14T04:02:36.438638+00:00,6.485000,-0.009500,
2025-10-14T04:02:36.443638+00:00,6.490000,0.002660,
2025-10-14T04:02:36.448638+00:00,6.495000,0.011780,
2025-10-14T04:02:36.453638+00:00,6.500000,0.015960,
2025-10-14T04:02:36.458638+00:00,6.505000,0.017480,
2025-10-14T04:02:36.463638+00:00,6.510000,0.019380,
2025-10-14T04:02:36.468638+00:00,6.515000,0.023940,
2025-10-14T04:02:36.473638+00:00,6.520000,0.034960,
2025-10-14T04:02:36.478638+00:00,6.525000,0.048640,
2025-10-14T04:02:36.483638+00:00,6.530000,0.059660,
2025-10-14T04:02:36.488638+00:00,6.535000,0.066120,
2025-10-14T04:02:36.493638+00:00,6.540000,0.069920,
2025-10-14T04:02:36.498638+00:00,6.545000,0.072960,
2025-10-14T04:02:36.503638+00:00,6.550000,0.073340,
2025-10-14T04:02:36.508638+00:00,6.555000,0.072580,
2025-10-14T04:02:36.513638+00:00,6.560000,0.070300,
2025-10-14T04:02:36.518638+00:00,6.565000,0.069160,
2025-10-14T04:02:36.523638+00:00,6.570000,0.068780,
2025-10-14T04:02:36.528638+00:00,6.575000,0.067260,
2025-10-14T04:02:36.533638+00:00,6.580000,0.061180,
2025-10-14T04:02:36.538638+00:00,6.585000,0.053960,
2025-10-14T04:02:36.543638+00:00,6.590000,0.046740,
2025-10-14T04:02:36.548638+00:00,6.595000,0.042940,
2025-10-14T04:02:36.553638+00:00,6.600000,0.038380,
2025-10-14T04:02:36.558638+00:00,6.605000,0.034200,
2025-10-14T04:02:36.563638+00:00,6.610000,0.028880,
2025-10-14T04:02:36.568638+00:00,6.615000,0.025080,
2025-10-14T04:02:36.573638+00:00,6.620000,0.020520,
2025-10-14T04:02:36.578638+00:00,6.625000,0.019000,
2025-10-14T04:02:36.583638+00:00,6.630000,0.018240,
2025-10-14T04:02:36.588638+00:00,6.635000,0.016720,
2025-10-14T04:02:36.593638+00:00,6.640000,0.012160,
2025-10-14T04:02:36.598638+00:00,6.645000,0.004180,
2025-10-14T04:02:36.603638+00:00,6.650000,-0.001900,
2025-10-14T04:02:36.608638+00:00,6.655000,-0.004560,
2025-10-14T04:02:36.613638+00:00,6.660000,-0.006080,
2025-10-14T04:02:36.618638+00:00,6.665000,-0.003040,
2025-10-14T04:02:36.623638+00:00,6.670000,-0.000380,
2025-10-14T04:02:36.628638+00:00,6.675000,0.000380,
2025-10-14T04:02:36.633638+00:00,6.680000,0.000380,
2025-10-14T04:02:36.638638+00:00,6.685000,-0.002660,
2025-10-14T04:02:36.643638+00:00,6.690000,-0.005320,
2025-10-14T04:02:36.648638+00:00,6.695000,-0.005320,
2025-10-14T04:02:36.653638+00:00,6.700000,-0.007600,
2025-10-14T04:02:36.658638+00:00,6.705000,-0.011020,
2025-10-14T04:02:36.663638+00:00,6.710000,-0.019000,
2025-10-14T04:02:36.668638+00:00,6.715000,-0.026600,
2025-10-14T04:02:36.673638+00:00,6.720000,-0.031160,
2025-10-14T04:02:36.678638+00:00,6.725000,-0.032300,
2025-10-14T04:02:36.683638+00:00,6.730000,-0.032680,
2025-10-14T04:02:36.688638+00:00,6.735000,-0.033820,
2025-10-14T04:02:36.693638+00:00,6.740000,-0.035720,
2025-10-14T04:02:36.698638+00:00,6.745000,-0.036480,
2025-10-14T04:02:36.703638+00:00,6.750000,-0.035720,
2025-10-14T04:02:36.708638+00:00,6.755000,-0.034960,
2025-10-14T04:02:36.713638+00:00,6.760000,-0.039140,
2025-10-14T04:02:36.718638+00:00,6.765000,-0.052060,
2025-10-14T04:02:36.723638+00:00,6.770000,-0.069920,
2025-10-14T04:02:36.728638+00:00,6.775000,-0.088920,
2025-10-14T04:02:36.733638+00:00,6.780000,-0.109060,
2025-10-14T04:02:36.738638+00:00,6.785000,-0.131860,
2025-10-14T04:02:36.743638+00:00,6.790000,-0.160360,
2025-10-14T04:02:36.748638+00:00,6.795000,-0.193420,
2025-10-14T04:02:36.753638+00:00,6.800000,-0.232180,
2025-10-14T04:02:36.758638+00:00,6.805000,-0.280820,
2025-10-14T04:02:36.763638+00:00,6.810000,-0.338960,
2025-10-14T04:02:36.768638+00:00,6.815000,-0.405460,
2025-10-14T04:02:36.773638+00:00,6.820000,-0.473100,
2025-10-14T04:02:36.778638+00:00,6.825000,-0.527440,
2025-10-14T04:02:36.783638+00:00,6.830000,-0.565060,
2025-10-14T04:02:36.788638+00:00,6.835000,-0.590520,
2025-10-14T04:02:36.793638+00:00,6.840000,-0.612180,
2025-10-14T04:02:36.798638+00:00,6.845000,-0.628900,
2025-10-14T04:02:36.803638+00:00,6.850000,-0.630040,
2025-10-14T04:02:36.808638+00:00,6.855000,-0.611420,
2025-10-14T04:02:36.813638+00:00,6.860000,-0.582160,
2025-10-14T04:02:36.818638+00:00,6.865000,-0.557080,
2025-10-14T04:02:36.823638+00:00,6.870000,-0.541500,
2025-10-14T04:02:36.828638+00:00,6.875000,-0.536180,
2025-10-14T04:02:36.833638+00:00,6.880000,-0.536180,
2025-10-14T04:02:36.838638+00:00,6.885000,-0.532760,
2025-10-14T04:02:36.843638+00:00,6.890000,-0.502360,
2025-10-14T04:02:36.848638+00:00,6.895000,-0.447260,
2025-10-14T04:02:36.853638+00:00,6.900000,-0.394820,
2025-10-14T04:02:36.858638+00:00,6.905000,-0.361380,
2025-10-14T04:02:36.863638+00:00,6.910000,-0.302480,
2025-10-14T04:02:36.868638+00:00,6.915000,-0.143260,
2025-10-14T04:02:36.873638+00:00,6.920000,0.144020,
2025-10-14T04:02:36.878638+00:00,6.925000,0.504640,
2025-10-14T04:02:36.883638+00:00,6.930000,0.755060,
2025-10-14T04:02:36.888638+00:00,6.935000,0.692740,
2025-10-14T04:02:36.893638+00:00,6.940000,0.287280,
2025-10-14T04:02:36.898638+00:00,6.945000,-0.235220,
2025-10-14T04:02:36.903638+00:00,6.950000,-0.569240,
2025-10-14T04:02:36.908638+00:00,6.955000,-0.595080,
2025-10-14T04:02:36.913638+00:00,6.960000,-0.437760,
2025-10-14T04:02:36.918638+00:00,6.965000,-0.281960,
2025-10-14T04:02:36.923638+00:00,6.970000,-0.183540,
2025-10-14T04:02:36.928638+00:00,6.975000,-0.102980,
2025-10-14T04:02:36.933638+00:00,6.980000,-0.029260,
2025-10-14T04:02:36.938638+00:00,6.985000,0.026600,
2025-10-14T04:02:36.943638+00:00,6.990000,0.058140,
2025-10-14T04:02:36.948638+00:00,6.995000,0.073340,
2025-10-14T04:02:36.953638+00:00,7.000000,0.079040,
2025-10-14T04:02:36.958638+00:00,7.005000,0.093860,
2025-10-14T04:02:36.963638+00:00,7.010000,0.118560,
2025-10-14T04:02:36.968638+00:00,7.015000,0.146300,
2025-10-14T04:02:36.973638+00:00,7.020000,0.161500,
2025-10-14T04:02:36.978638+00:00,7.025000,0.167200,
2025-10-14T04:02:36.983638+00:00,7.030000,0.172140,
2025-10-14T04:02:36.988638+00:00,7.035000,0.188860,
2025-10-14T04:02:36.993638+00:00,7.040000,0.216980,
2025-10-14T04:02:36.998638+00:00,7.045000,0.247000,
2025-10-14T04:02:37.003638+00:00,7.050000,0.264480,
2025-10-14T04:02:37.008638+00:00,7.055000,0.268280,
2025-10-14T04:02:37.013638+00:00,7.060000,0.254220,
2025-10-14T04:02:37.018638+00:00,7.065000,0.235220,
2025-10-14T04:02:37.023638+00:00,7.070000,0.219640,
2025-10-14T04:02:37.028638+00:00,7.075000,0.215460,
2025-10-14T04:02:37.033638+00:00,7.080000,0.218120,
2025-10-14T04:02:37.038638+00:00,7.085000,0.221160,
2025-10-14T04:02:37.043638+00:00,7.090000,0.222300,
2025-10-14T04:02:37.048638+00:00,7.095000,0.221920,
2025-10-14T04:02:37.053638+00:00,7.100000,0.223440,
2025-10-14T04:02:37.058638+00:00,7.105000,0.226480,
2025-10-14T04:02:37.063638+00:00,7.110000,0.227240,
2025-10-14T04:02:37.068638+00:00,7.115000,0.224200,
2025-10-14T04:02:37.073638+00:00,7.120000,0.218880,
2025-10-14T04:02:37.078638+00:00,7.125000,0.212420,
2025-10-14T04:02:37.083638+00:00,7.130000,0.207860,
2025-10-14T04:02:37.088638+00:00,7.135000,0.201780,
2025-10-14T04:02:37.093638+00:00,7.140000,0.197220,
2025-10-14T04:02:37.098638+00:00,7.145000,0.192280,
2025-10-14T04:02:37.103638+00:00,7.150000,0.188480,
2025-10-14T04:02:37.108638+00:00,7.155000,0.185820,
2025-10-14T04:02:37.113638+00:00,7.160000,0.182020,
2025-10-14T04:02:37.118638+00:00,7.165000,0.172140,
2025-10-14T04:02:37.123638+00:00,7.170000,0.161500,
2025-10-14T04:02:37.128638+00:00,7.175000,0.152000,
2025-10-14T04:02:37.133638+00:00,7.180000,0.139460,
2025-10-14T04:02:37.138638+00:00,7.185000,0.124260,
2025-10-14T04:02:37.143638+00:00,7.190000,0.104500,
2025-10-14T04:02:37.148638+00:00,7.195000,0.083600,
2025-10-14T04:02:37.153638+00:00,7.200000,0.055860,
2025-10-14T04:02:37.158638+00:00,7.205000,0.025080,
2025-10-14T04:02:37.163638+00:00,7.210000,-0.008740,
2025-10-14T04:02:37.168638+00:00,7.215000,-0.042940,
2025-10-14T04:02:37.173638+00:00,7.220000,-0.070680,
2025-10-14T04:02:37.178638+00:00,7.225000,-0.090060,
2025-10-14T04:02:37.183638+00:00,7.230000,-0.102600,
2025-10-14T04:02:37.188638+00:00,7.235000,-0.109060,
2025-10-14T04:02:37.193638+00:00,7.240000,-0.107160,
2025-10-14T04:02:37.198638+00:00,7.245000,-0.100700,
2025-10-14T04:02:37.203638+00:00,7.250000,-0.091580,
2025-10-14T04:02:37.208638+00:00,7.255000,-0.082840,
2025-10-14T04:02:37.213638+00:00,7.260000,-0.079040,
2025-10-14T04:02:37.218638+00:00,7.265000,-0.071820,
2025-10-14T04:02:37.223638+00:00,7.270000,-0.058900,
2025-10-14T04:02:37.228638+00:00,7.275000,-0.041800,
2025-10-14T04:02:37.233638+00:00,7.280000,-0.033820,
2025-10-14T04:02:37.238638+00:00,7.285000,-0.041420,
2025-10-14T04:02:37.243638+00:00,7.290000,-0.057000,
2025-10-14T04:02:37.248638+00:00,7.295000,-0.067260,
2025-10-14T04:02:37.253638+00:00,7.300000,-0.072200,
2025-10-14T04:02:37.258638+00:00,7.305000,-0.075620,
2025-10-14T04:02:37.263638+00:00,7.310000,-0.078280,
2025-10-14T04:02:37.268638+00:00,7.315000,-0.073720,
2025-10-14T04:02:37.273638+00:00,7.320000,-0.060800,
2025-10-14T04:02:37.278638+00:00,7.325000,-0.046740,
2025-10-14T04:02:37.283638+00:00,7.330000,-0.038000,
2025-10-14T04:02:37.288638+00:00,7.335000,-0.030400,
2025-10-14T04:02:37.293638+00:00,7.340000,-0.020140,
2025-10-14T04:02:37.298638+00:00,7.345000,-0.007600,
2025-10-14T04:02:37.303638+00:00,7.350000,0.003420,
2025-10-14T04:02:37.308638+00:00,7.355000,0.012160,
2025-10-14T04:02:37.313638+00:00,7.360000,0.024700,
2025-10-14T04:02:37.318638+00:00,7.365000,0.038000,
2025-10-14T04:02:37.323638+00:00,7.370000,0.045980,
2025-10-14T04:02:37.328638+00:00,7.375000,0.044460,
2025-10-14T04:02:37.333638+00:00,7.380000,0.034200,
2025-10-14T04:02:37.338638+00:00,7.385000,0.023180,
2025-10-14T04:02:37.343638+00:00,7.390000,0.014440,
2025-10-14T04:02:37.348638+00:00,7.395000,0.011400,
2025-10-14T04:02:37.353638+00:00,7.400000,0.016340,
2025-10-14T04:02:37.358638+00:00,7.405000,0.025080,
2025-10-14T04:02:37.363638+00:00,7.410000,0.030780,
2025-10-14T04:02:37.368638+00:00,7.415000,0.032300,
2025-10-14T04:02:37.373638+00:00,7.420000,0.034580,
2025-10-14T04:02:37.378638+00:00,7.425000,0.040660,
2025-10-14T04:02:37.383638+00:00,7.430000,0.050160,
2025-10-14T04:02:37.388638+00:00,7.435000,0.058520,
2025-10-14T04:02:37.393638+00:00,7.440000,0.061940,
2025-10-14T04:02:37.398638+00:00,7.445000,0.055100,
2025-10-14T04:02:37.403638+00:00,7.450000,0.043700,
2025-10-14T04:02:37.408638+00:00,7.455000,0.031920,
2025-10-14T04:02:37.413638+00:00,7.460000,0.019000,
2025-10-14T04:02:37.418638+00:00,7.465000,-0.000380,
2025-10-14T04:02:37.423638+00:00,7.470000,-0.026980,
2025-10-14T04:02:37.428638+00:00,7.475000,-0.058140,
2025-10-14T04:02:37.433638+00:00,7.480000,-0.089300,
2025-10-14T04:02:37.438638+00:00,7.485000,-0.121220,
2025-10-14T04:02:37.443638+00:00,7.490000,-0.155420,
2025-10-14T04:02:37.448638+00:00,7.495000,-0.183920,
2025-10-14T04:02:37.453638+00:00,7.500000,-0.205960,
2025-10-14T04:02:37.458638+00:00,7.505000,-0.223060,
2025-10-14T04:02:37.463638+00:00,7.510000,-0.243200,
2025-10-14T04:02:37.468638+00:00,7.515000,-0.266380,
2025-10-14T04:02:37.473638+00:00,7.520000,-0.291840,
2025-10-14T04:02:37.478638+00:00,7.525000,-0.319960,
2025-10-14T04:02:37.483638+00:00,7.530000,-0.349980,
2025-10-14T04:02:37.488638+00:00,7.535000,-0.386460,
2025-10-14T04:02:37.493638+00:00,7.540000,-0.430920,
2025-10-14T04:02:37.498638+00:00,7.545000,-0.484120,
2025-10-14T04:02:37.503638+00:00,7.550000,-0.542260,
2025-10-14T04:02:37.508638+00:00,7.555000,-0.603440,
2025-10-14T04:02:37.513638+00:00,7.560000,-0.671460,
2025-10-14T04:02:37.518638+00:00,7.565000,-0.741000,
2025-10-14T04:02:37.523638+00:00,7.570000,-0.798000,
2025-10-14T04:02:37.528638+00:00,7.575000,-0.840560,
2025-10-14T04:02:37.533638+00:00,7.580000,-0.883500,
2025-10-14T04:02:37.538638+00:00,7.585000,-0.924540,
2025-10-14T04:02:37.543638+00:00,7.590000,-0.946960,
2025-10-14T04:02:37.548638+00:00,7.595000,-0.927580,
2025-10-14T04:02:37.553638+00:00,7.600000,-0.874760,
2025-10-14T04:02:37.558638+00:00,7.605000,-0.819660,
2025-10-14T04:02:37.563638+00:00,7.610000,-0.784700,
2025-10-14T04:02:37.568638+00:00,7.615000,-0.760760,
2025-10-14T04:02:37.573638+00:00,7.620000,-0.720860,
2025-10-14T04:02:37.578638+00:00,7.625000,-0.651700,
2025-10-14T04:02:37.583638+00:00,7.630000,-0.563920,
2025-10-14T04:02:37.588638+00:00,7.635000,-0.473480,
2025-10-14T04:02:37.593638+00:00,7.640000,-0.395580,
2025-10-14T04:02:37.598638+00:00,7.645000,-0.331360,
2025-10-14T04:02:37.603638+00:00,7.650000,-0.281200,
2025-10-14T04:02:37.608638+00:00,7.655000,-0.243960,
2025-10-14T04:02:37.613638+00:00,7.660000,-0.222300,
2025-10-14T04:02:37.618638+00:00,7.665000,-0.211660,
2025-10-14T04:02:37.623638+00:00,7.670000,-0.210900,
2025-10-14T04:02:37.628638+00:00,7.675000,-0.221540,
2025-10-14T04:02:37.633638+00:00,7.680000,-0.255740,
2025-10-14T04:02:37.638638+00:00,7.685000,-0.307420,
2025-10-14T04:02:37.643638+00:00,7.690000,-0.365560,
2025-10-14T04:02:37.648638+00:00,7.695000,-0.418380,
2025-10-14T04:02:37.653638+00:00,7.700000,-0.472340,
2025-10-14T04:02:37.658638+00:00,7.705000,-0.542640,
2025-10-14T04:02:37.663638+00:00,7.710000,-0.625100,
2025-10-14T04:02:37.668638+00:00,7.715000,-0.708320,
2025-10-14T04:02:37.673638+00:00,7.720000,-0.804460,
2025-10-14T04:02:37.678638+00:00,7.725000,-0.948860,
2025-10-14T04:02:37.683638+00:00,7.730000,-1.151020,
2025-10-14T04:02:37.688638+00:00,7.735000,-1.377500,
2025-10-14T04:02:37.693638+00:00,7.740000,-1.583840,
2025-10-14T04:02:37.698638+00:00,7.745000,-1.747620,
2025-10-14T04:02:37.703638+00:00,7.750000,-1.873400,
2025-10-14T04:02:37.708638+00:00,7.755000,-1.962320,
2025-10-14T04:02:37.713638+00:00,7.760000,-1.990440,
2025-10-14T04:02:37.718638+00:00,7.765000,-1.936860,
2025-10-14T04:02:37.723638+00:00,7.770000,-1.817160,
2025-10-14T04:02:37.728638+00:00,7.775000,-1.638180,
2025-10-14T04:02:37.733638+00:00,7.780000,-1.374080,
2025-10-14T04:02:37.738638+00:00,7.785000,-0.988000,
2025-10-14T04:02:37.743638+00:00,7.790000,-0.497040,
2025-10-14T04:02:37.748638+00:00,7.795000,0.011780,
2025-10-14T04:02:37.753638+00:00,7.800000,0.376200,
2025-10-14T04:02:37.758638+00:00,7.805000,0.425980,
2025-10-14T04:02:37.763638+00:00,7.810000,0.134140,
2025-10-14T04:02:37.768638+00:00,7.815000,-0.302860,
2025-10-14T04:02:37.773638+00:00,7.820000,-0.593180,
2025-10-14T04:02:37.778638+00:00,7.825000,-0.598500,
2025-10-14T04:02:37.783638+00:00,7.830000,-0.434340,
2025-10-14T04:02:37.788638+00:00,7.835000,-0.284620,
2025-10-14T04:02:37.793638+00:00,7.840000,-0.201400,
2025-10-14T04:02:37.798638+00:00,7.845000,-0.128820,
2025-10-14T04:02:37.803638+00:00,7.850000,-0.041040,
2025-10-14T04:02:37.808638+00:00,7.855000,0.044840,
2025-10-14T04:02:37.813638+00:00,7.860000,0.110200,
2025-10-14T04:02:37.818638+00:00,7.865000,0.154280,
2025-10-14T04:02:37.823638+00:00,7.870000,0.184300,
2025-10-14T04:02:37.828638+00:00,7.875000,0.217360,
2025-10-14T04:02:37.833638+00:00,7.880000,0.286520,
2025-10-14T04:02:37.838638+00:00,7.885000,0.393680,
2025-10-14T04:02:37.843638+00:00,7.890000,0.508060,
2025-10-14T04:02:37.848638+00:00,7.895000,0.606480,
2025-10-14T04:02:37.853638+00:00,7.900000,0.708700,
2025-10-14T04:02:37.858638+00:00,7.905000,0.847780,
2025-10-14T04:02:37.863638+00:00,7.910000,1.029800,
2025-10-14T04:02:37.868638+00:00,7.915000,1.225120,
2025-10-14T04:02:37.873638+00:00,7.920000,1.413220,
2025-10-14T04:02:37.878638+00:00,7.925000,1.577760,
2025-10-14T04:02:37.883638+00:00,7.930000,1.706580,
2025-10-14T04:02:37.888638+00:00,7.935000,1.774600,
2025-10-14T04:02:37.893638+00:00,7.940000,1.781440,
2025-10-14T04:02:37.898638+00:00,7.945000,1.754460,
2025-10-14T04:02:37.903638+00:00,7.950000,1.726720,
2025-10-14T04:02:37.908638+00:00,7.955000,1.704680,
2025-10-14T04:02:37.913638+00:00,7.960000,1.670100,
2025-10-14T04:02:37.918638+00:00,7.965000,1.618800,
2025-10-14T04:02:37.923638+00:00,7.970000,1.565980,
2025-10-14T04:02:37.928638+00:00,7.975000,1.525700,
2025-10-14T04:02:37.933638+00:00,7.980000,1.493020,
2025-10-14T04:02:37.938638+00:00,7.985000,1.454260,
2025-10-14T04:02:37.943638+00:00,7.990000,1.406380,
2025-10-14T04:02:37.948638+00:00,7.995000,1.366860,
2025-10-14T04:02:37.953638+00:00,8.000000,1.345960,
2025-10-14T04:02:37.958638+00:00,8.005000,1.335320,
2025-10-14T04:02:37.963638+00:00,8.010000,1.313660,
2025-10-14T04:02:37.968638+00:00,8.015000,1.272240,
2025-10-14T04:02:37.973638+00:00,8.020000,1.222080,
2025-10-14T04:02:37.978638+00:00,8.025000,1.168880,
2025-10-14T04:02:37.983638+00:00,8.030000,1.118340,
2025-10-14T04:02:37.988638+00:00,8.035000,1.063240,
2025-10-14T04:02:37.993638+00:00,8.040000,1.001680,
2025-10-14T04:02:37.998638+00:00,8.045000,0.933280,
2025-10-14T04:02:38.003638+00:00,8.050000,0.861460,
2025-10-14T04:02:38.008638+00:00,8.055000,0.788880,
2025-10-14T04:02:38.013638+00:00,8.060000,0.717440,
2025-10-14T04:02:38.018638+00:00,8.065000,0.648280,
2025-10-14T04:02:38.023638+00:00,8.070000,0.582160,
2025-10-14T04:02:38.028638+00:00,8.075000,0.513380,
2025-10-14T04:02:38.033638+00:00,8.080000,0.441560,
2025-10-14T04:02:38.038638+00:00,8.085000,0.370120,
2025-10-14T04:02:38.043638+00:00,8.090000,0.304000,
2025-10-14T04:02:38.048638+00:00,8.095000,0.245480,
2025-10-14T04:02:38.053638+00:00,8.100000,0.197980,
2025-10-14T04:02:38.058638+00:00,8.105000,0.160740,
2025-10-14T04:02:38.063638+00:00,8.110000,0.130340,
2025-10-14T04:02:38.068638+00:00,8.115000,0.107920,
2025-10-14T04:02:38.073638+00:00,8.120000,0.098040,
2025-10-14T04:02:38.078638+00:00,8.125000,0.093100,
2025-10-14T04:02:38.083638+00:00,8.130000,0.094240,
2025-10-14T04:02:38.088638+00:00,8.135000,0.095000,
2025-10-14T04:02:38.093638+00:00,8.140000,0.091960,
2025-10-14T04:02:38.098638+00:00,8.145000,0.083980,
2025-10-14T04:02:38.103638+00:00,8.150000,0.071820,
2025-10-14T04:02:38.108638+00:00,8.155000,0.055860,
2025-10-14T04:02:38.113638+00:00,8.160000,0.034960,
2025-10-14T04:02:38.118638+00:00,8.165000,0.011020,
2025-10-14T04:02:38.123638+00:00,8.170000,-0.008740,
2025-10-14T04:02:38.128638+00:00,8.175000,-0.024700,
2025-10-14T04:02:38.133638+00:00,8.180000,-0.035720,
2025-10-14T04:02:38.138638+00:00,8.185000,-0.042940,
2025-10-14T04:02:38.143638+00:00,8.190000,-0.052820,
2025-10-14T04:02:38.148638+00:00,8.195000,-0.065360,
2025-10-14T04:02:38.153638+00:00,8.200000,-0.078660,
2025-10-14T04:02:38.158638+00:00,8.205000,-0.093860,
2025-10-14T04:02:38.163638+00:00,8.210000,-0.108300,
2025-10-14T04:02:38.168638+00:00,8.215000,-0.120460,
2025-10-14T04:02:38.173638+00:00,8.220000,-0.128440,
2025-10-14T04:02:38.178638+00:00,8.225000,-0.136800,
2025-10-14T04:02:38.183638+00:00,8.230000,-0.144020,
2025-10-14T04:02:38.188638+00:00,8.235000,-0.152000,
2025-10-14T04:02:38.193638+00:00,8.240000,-0.161500,
2025-10-14T04:02:38.198638+00:00,8.245000,-0.171380,
2025-10-14T04:02:38.203638+00:00,8.250000,-0.178980,
2025-10-14T04:02:38.208638+00:00,8.255000,-0.184680,
2025-10-14T04:02:38.213638+00:00,8.260000,-0.191900,
2025-10-14T04:02:38.218638+00:00,8.265000,-0.198740,
2025-10-14T04:02:38.223638+00:00,8.270000,-0.204820,
2025-10-14T04:02:38.228638+00:00,8.275000,-0.210140,
2025-10-14T04:02:38.233638+00:00,8.280000,-0.219260,
2025-10-14T04:02:38.238638+00:00,8.285000,-0.232180,
2025-10-14T04:02:38.243638+00:00,8.290000,-0.250800,
2025-10-14T04:02:38.248638+00:00,8.295000,-0.269420,
2025-10-14T04:02:38.253638+00:00,8.300000,-0.285380,
2025-10-14T04:02:38.258638+00:00,8.305000,-0.302480,
2025-10-14T04:02:38.263638+00:00,8.310000,-0.323380,
2025-10-14T04:02:38.268638+00:00,8.315000,-0.339720,
2025-10-14T04:02:38.273638+00:00,8.320000,-0.349980,
2025-10-14T04:02:38.278638+00:00,8.325000,-0.354540,
2025-10-14T04:02:38.283638+00:00,8.330000,-0.353400,
2025-10-14T04:02:38.288638+00:00,8.335000,-0.348460,
2025-10-14T04:02:38.293638+00:00,8.340000,-0.343520,
2025-10-14T04:02:38.298638+00:00,8.345000,-0.339720,
2025-10-14T04:02:38.303638+00:00,8.350000,-0.337440,
2025-10-14T04:02:38.308638+00:00,8.355000,-0.338960,
2025-10-14T04:02:38.313638+00:00,8.360000,-0.340480,
2025-10-14T04:02:38.318638+00:00,8.365000,-0.342380,
2025-10-14T04:02:38.323638+00:00,8.370000,-0.343520,
2025-10-14T04:02:38.328638+00:00,8.375000,-0.344660,
2025-10-14T04:02:38.333638+00:00,8.380000,-0.344660,
2025-10-14T04:02:38.338638+00:00,8.385000,-0.343520,
2025-10-14T04:02:38.343638+00:00,8.390000,-0.342760,
2025-10-14T04:02:38.348638+00:00,8.395000,-0.338580,
2025-10-14T04:02:38.353638+00:00,8.400000,-0.326040,
2025-10-14T04:02:38.358638+00:00,8.405000,-0.312360,
2025-10-14T04:02:38.363638+00:00,8.410000,-0.306280,
2025-10-14T04:02:38.368638+00:00,8.415000,-0.303240,
2025-10-14T04:02:38.373638+00:00,8.420000,-0.302100,
2025-10-14T04:02:38.378638+00:00,8.425000,-0.299440,
2025-10-14T04:02:38.383638+00:00,8.430000,-0.294880,
2025-10-14T04:02:38.388638+00:00,8.435000,-0.290700,
2025-10-14T04:02:38.393638+00:00,8.440000,-0.291840,
2025-10-14T04:02:38.398638+00:00,8.445000,-0.292600,
2025-10-14T04:02:38.403638+00:00,8.450000,-0.279300,
2025-10-14T04:02:38.408638+00:00,8.455000,-0.251560,
2025-10-14T04:02:38.413638+00:00,8.460000,-0.217740,
2025-10-14T04:02:38.418638+00:00,8.465000,-0.193040,
2025-10-14T04:02:38.423638+00:00,8.470000,-0.182020,
2025-10-14T04:02:38.428638+00:00,8.475000,-0.186960,
2025-10-14T04:02:38.433638+00:00,8.480000,-0.210520,
2025-10-14T04:02:38.438638+00:00,8.485000,-0.265620,
2025-10-14T04:02:38.443638+00:00,8.490000,-0.370500,
2025-10-14T04:02:38.448638+00:00,8.495000,-0.540740,
2025-10-14T04:02:38.453638+00:00,8.500000,-0.772920,
2025-10-14T04:02:38.458638+00:00,8.505000,-1.043860,
2025-10-14T04:02:38.463638+00:00,8.510000,-1.301120,
2025-10-14T04:02:38.468638+00:00,8.515000,-1.503660,
2025-10-14T04:02:38.473638+00:00,8.520000,-1.648060,
2025-10-14T04:02:38.478638+00:00,8.525000,-1.763200,
2025-10-14T04:02:38.483638+00:00,8.530000,-1.877200,
2025-10-14T04:02:38.488638+00:00,8.535000,-2.002220,
2025-10-14T04:02:38.493638+00:00,8.540000,-2.152700,
2025-10-14T04:02:38.498638+00:00,8.545000,-2.338520,
2025-10-14T04:02:38.503638+00:00,8.550000,-2.553600,
2025-10-14T04:02:38.508638+00:00,8.555000,-2.767160,
2025-10-14T04:02:38.513638+00:00,8.560000,-2.939300,
2025-10-14T04:02:38.518638+00:00,8.565000,-3.036200,
2025-10-14T04:02:38.523638+00:00,8.570000,-3.052160,
2025-10-14T04:02:38.528638+00:00,8.575000,-3.000860,
2025-10-14T04:02:38.533638+00:00,8.580000,-2.910040,
2025-10-14T04:02:38.538638+00:00,8.585000,-2.798320,
2025-10-14T04:02:38.543638+00:00,8.590000,-2.679000,
2025-10-14T04:02:38.548638+00:00,8.595000,-2.565760,
2025-10-14T04:02:38.553638+00:00,8.600000,-2.485200,
2025-10-14T04:02:38.558638+00:00,8.605000,-2.458600,
2025-10-14T04:02:38.563638+00:00,8.610000,-2.489000,
2025-10-14T04:02:38.568638+00:00,8.615000,-2.563100,
2025-10-14T04:02:38.573638+00:00,8.620000,-2.645940,
2025-10-14T04:02:38.578638+00:00,8.625000,-2.680520,
2025-10-14T04:02:38.583638+00:00,8.630000,-2.656960,
2025-10-14T04:02:38.588638+00:00,8.635000,-2.652400,
2025-10-14T04:02:38.593638+00:00,8.640000,-2.761080,
2025-10-14T04:02:38.598638+00:00,8.645000,-3.074960,
2025-10-14T04:02:38.603638+00:00,8.650000,-3.708800,
2025-10-14T04:02:38.608638+00:00,8.655000,-4.729860,
2025-10-14T04:02:38.613638+00:00,8.660000,-5.990700,
2025-10-14T04:02:38.618638+00:00,8.665000,-7.125760,
2025-10-14T04:02:38.623638+00:00,8.670000,-7.842440,
2025-10-14T04:02:38.628638+00:00,8.675000,-8.160120,
2025-10-14T04:02:38.633638+00:00,8.680000,-8.299200,
2025-10-14T04:02:38.638638+00:00,8.685000,-8.416620,
2025-10-14T04:02:38.643638+00:00,8.690000,-8.522640,
2025-10-14T04:02:38.648638+00:00,8.695000,-8.618780,
2025-10-14T04:02:38.653638+00:00,8.700000,-8.771540,
2025-10-14T04:02:38.658638+00:00,8.705000,-9.026140,
2025-10-14T04:02:38.663638+00:00,8.710000,-9.342300,
2025-10-14T04:02:38.668638+00:00,8.715000,-9.630340,
2025-10-14T04:02:38.673638+00:00,8.720000,-9.840860,
2025-10-14T04:02:38.678638+00:00,8.725000,-10.008440,
2025-10-14T04:02:38.683638+00:00,8.730000,-10.206040,
2025-10-14T04:02:38.688638+00:00,8.735000,-10.431380,
2025-10-14T04:02:38.693638+00:00,8.740000,-10.569320,
2025-10-14T04:02:38.698638+00:00,8.745000,-10.494840,
2025-10-14T04:02:38.703638+00:00,8.750000,-10.146000,
2025-10-14T04:02:38.708638+00:00,8.755000,-9.519760,
2025-10-14T04:02:38.713638+00:00,8.760000,-8.643860,
2025-10-14T04:02:38.718638+00:00,8.765000,-7.525520,
2025-10-14T04:02:38.723638+00:00,8.770000,-6.137760,
2025-10-14T04:02:38.728638+00:00,8.775000,-4.501860,
2025-10-14T04:02:38.733638+00:00,8.780000,-2.736380,
2025-10-14T04:02:38.738638+00:00,8.785000,-1.007760,
2025-10-14T04:02:38.743638+00:00,8.790000,0.555940,
2025-10-14T04:02:38.748638+00:00,8.795000,1.941800,
2025-10-14T04:02:38.753638+00:00,8.800000,3.252420,
2025-10-14T04:02:38.758638+00:00,8.805000,4.598380,
2025-10-14T04:02:38.763638+00:00,8.810000,6.006660,
2025-10-14T04:02:38.768638+00:00,8.815000,7.401260,
2025-10-14T04:02:38.773638+00:00,8.820000,8.640820,
2025-10-14T04:02:38.778638+00:00,8.825000,9.617040,
2025-10-14T04:02:38.783638+00:00,8.830000,10.321560,
2025-10-14T04:02:38.788638+00:00,8.835000,10.801120,
2025-10-14T04:02:38.793638+00:00,8.840000,11.093340,
2025-10-14T04:02:38.798638+00:00,8.845000,11.213800,
2025-10-14T04:02:38.803638+00:00,8.850000,11.166680,
2025-10-14T04:02:38.808638+00:00,8.855000,10.957300,
2025-10-14T04:02:38.813638+00:00,8.860000,10.618720,
2025-10-14T04:02:38.818638+00:00,8.865000,10.227320,
2025-10-14T04:02:38.823638+00:00,8.870000,9.849600,
2025-10-14T04:02:38.828638+00:00,8.875000,9.504180,
2025-10-14T04:02:38.833638+00:00,8.880000,9.172060,
2025-10-14T04:02:38.838638+00:00,8.885000,8.831200,
2025-10-14T04:02:38.843638+00:00,8.890000,8.468300,
2025-10-14T04:02:38.848638+00:00,8.895000,8.083360,
2025-10-14T04:02:38.853638+00:00,8.900000,7.686640,
2025-10-14T04:02:38.858638+00:00,8.905000,7.289160,
2025-10-14T04:02:38.863638+00:00,8.910000,6.899660,
2025-10-14T04:02:38.868638+00:00,8.915000,6.523840,
2025-10-14T04:02:38.873638+00:00,8.920000,6.161700,
2025-10-14T04:02:38.878638+00:00,8.925000,5.812100,
2025-10-14T04:02:38.883638+00:00,8.930000,5.475800,
2025-10-14T04:02:38.888638+00:00,8.935000,5.159260,
2025-10-14T04:02:38.893638+00:00,8.940000,4.862860,
2025-10-14T04:02:38.898638+00:00,8.945000,4.580900,
2025-10-14T04:02:38.903638+00:00,8.950000,4.314140,
2025-10-14T04:02:38.908638+00:00,8.955000,4.058400,
2025-10-14T04:02:38.913638+00:00,8.960000,3.811780,
2025-10-14T04:02:38.918638+00:00,8.965000,3.576180,
2025-10-14T04:02:38.923638+00:00,8.970000,3.356160,
2025-10-14T04:02:38.928638+00:00,8.975000,3.144500,
2025-10-14T04:02:38.933638+00:00,8.980000,2.946140,
2025-10-14T04:02:38.938638+00:00,8.985000,2.760700,
2025-10-14T04:02:38.943638+00:00,8.990000,2.589320,
2025-10-14T04:02:38.948638+00:00,8.995000,2.419840,
2025-10-14T04:02:38.953638+00:00,9.000000,2.255300,
2025-10-14T04:02:38.958638+00:00,9.005000,2.091520,
2025-10-14T04:02:38.963638+00:00,9.010000,1.934960,
2025-10-14T04:02:38.968638+00:00,9.015000,1.793220,
2025-10-14T04:02:38.973638+00:00,9.020000,1.669340,
2025-10-14T04:02:38.978638+00:00,9.025000,1.558000,
2025-10-14T04:02:38.983638+00:00,9.030000,1.458060,
2025-10-14T04:02:38.988638+00:00,9.035000,1.361920,
2025-10-14T04:02:38.993638+00:00,9.040000,1.269960,
2025-10-14T04:02:38.998638+00:00,9.045000,1.186360,
2025-10-14T04:02:39.003638+00:00,9.050000,1.111120,
2025-10-14T04:02:39.008638+00:00,9.055000,1.039300,
2025-10-14T04:02:39.013638+00:00,9.060000,0.973180,
2025-10-14T04:02:39.018638+00:00,9.065000,0.919980,
2025-10-14T04:02:39.023638+00:00,9.070000,0.880460,
2025-10-14T04:02:39.028638+00:00,9.075000,0.845500,
2025-10-14T04:02:39.033638+00:00,9.080000,0.808640,
2025-10-14T04:02:39.038638+00:00,9.085000,0.768740,
2025-10-14T04:02:39.043638+00:00,9.090000,0.725420,
2025-10-14T04:02:39.048638+00:00,9.095000,0.681720,
2025-10-14T04:02:39.053638+00:00,9.100000,0.643720,
2025-10-14T04:02:39.058638+00:00,9.105000,0.610280,
2025-10-14T04:02:39.063638+00:00,9.110000,0.582160,
2025-10-14T04:02:39.068638+00:00,9.115000,0.552140,
2025-10-14T04:02:39.073638+00:00,9.120000,0.514520,
2025-10-14T04:02:39.078638+00:00,9.125000,0.466640,
2025-10-14T04:02:39.083638+00:00,9.130000,0.409640,
2025-10-14T04:02:39.088638+00:00,9.135000,0.343900,
2025-10-14T04:02:39.093638+00:00,9.140000,0.270560,
2025-10-14T04:02:39.098638+00:00,9.145000,0.197220,
2025-10-14T04:02:39.103638+00:00,9.150000,0.128820,
2025-10-14T04:02:39.108638+00:00,9.155000,0.058520,
2025-10-14T04:02:39.113638+00:00,9.160000,-0.020140,
2025-10-14T04:02:39.118638+00:00,9.165000,-0.104880,
2025-10-14T04:02:39.123638+00:00,9.170000,-0.186580,
2025-10-14T04:02:39.128638+00:00,9.175000,-0.260300,
2025-10-14T04:02:39.133638+00:00,9.180000,-0.324140,
2025-10-14T04:02:39.138638+00:00,9.185000,-0.373160,
2025-10-14T04:02:39.143638+00:00,9.190000,-0.403940,
2025-10-14T04:02:39.148638+00:00,9.195000,-0.412300,
2025-10-14T04:02:39.153638+00:00,9.200000,-0.396340,
2025-10-14T04:02:39.158638+00:00,9.205000,-0.356440,
2025-10-14T04:02:39.163638+00:00,9.210000,-0.304000,
2025-10-14T04:02:39.168638+00:00,9.215000,-0.247380,
2025-10-14T04:02:39.173638+00:00,9.220000,-0.190380,
2025-10-14T04:02:39.178638+00:00,9.225000,-0.133000,
2025-10-14T04:02:39.183638+00:00,9.230000,-0.075620,
2025-10-14T04:02:39.188638+00:00,9.235000,-0.027740,
2025-10-14T04:02:39.193638+00:00,9.240000,0.010640,
2025-10-14T04:02:39.198638+00:00,9.245000,0.042940,
2025-10-14T04:02:39.203638+00:00,9.250000,0.070300,
2025-10-14T04:02:39.208638+00:00,9.255000,0.083980,
2025-10-14T04:02:39.213638+00:00,9.260000,0.077140,
2025-10-14T04:02:39.218638+00:00,9.265000,0.061180,
2025-10-14T04:02:39.223638+00:00,9.270000,0.050540,
2025-10-14T04:02:39.228638+00:00,9.275000,0.039140,
2025-10-14T04:02:39.233638+00:00,9.280000,0.017860,
2025-10-14T04:02:39.238638+00:00,9.285000,-0.018240,
2025-10-14T04:02:39.243638+00:00,9.290000,-0.053960,
2025-10-14T04:02:39.248638+00:00,9.295000,-0.076000,
2025-10-14T04:02:39.253638+00:00,9.300000,-0.091960,
2025-10-14T04:02:39.258638+00:00,9.305000,-0.114000,
2025-10-14T04:02:39.263638+00:00,9.310000,-0.147820,
2025-10-14T04:02:39.268638+00:00,9.315000,-0.185820,
2025-10-14T04:02:39.273638+00:00,9.320000,-0.226100,
2025-10-14T04:02:39.278638+00:00,9.325000,-0.271700,
2025-10-14T04:02:39.283638+00:00,9.330000,-0.313880,
2025-10-14T04:02:39.288638+00:00,9.335000,-0.344280,
2025-10-14T04:02:39.293638+00:00,9.340000,-0.354920,
2025-10-14T04:02:39.298638+00:00,9.345000,-0.350360,
2025-10-14T04:02:39.303638+00:00,9.350000,-0.340860,
2025-10-14T04:02:39.308638+00:00,9.355000,-0.333260,
2025-10-14T04:02:39.313638+00:00,9.360000,-0.327940,
2025-10-14T04:02:39.318638+00:00,9.365000,-0.321480,
2025-10-14T04:02:39.323638+00:00,9.370000,-0.308180,
2025-10-14T04:02:39.328638+00:00,9.375000,-0.290700,
2025-10-14T04:02:39.333638+00:00,9.380000,-0.267900,
2025-10-14T04:02:39.338638+00:00,9.385000,-0.238640,
2025-10-14T04:02:39.343638+00:00,9.390000,-0.200640,
2025-10-14T04:02:39.348638+00:00,9.395000,-0.170240,
2025-10-14T04:02:39.353638+00:00,9.400000,-0.149340,
2025-10-14T04:02:39.358638+00:00,9.405000,-0.102600,
2025-10-14T04:02:39.363638+00:00,9.410000,0.020140,
2025-10-14T04:02:39.368638+00:00,9.415000,0.235600,
2025-10-14T04:02:39.373638+00:00,9.420000,0.492480,
2025-10-14T04:02:39.378638+00:00,9.425000,0.643720,
2025-10-14T04:02:39.383638+00:00,9.430000,0.526300,
2025-10-14T04:02:39.388638+00:00,9.435000,0.135660,
2025-10-14T04:02:39.393638+00:00,9.440000,-0.324140,
2025-10-14T04:02:39.398638+00:00,9.445000,-0.602680,
2025-10-14T04:02:39.403638+00:00,9.450000,-0.605720,
2025-10-14T04:02:39.408638+00:00,9.455000,-0.446120,
2025-10-14T04:02:39.413638+00:00,9.460000,-0.279300,
2025-10-14T04:02:39.418638+00:00,9.465000,-0.163400,
2025-10-14T04:02:39.423638+00:00,9.470000,-0.086260,
2025-10-14T04:02:39.428638+00:00,9.475000,-0.032680,
2025-10-14T04:02:39.433638+00:00,9.480000,0.004560,
2025-10-14T04:02:39.438638+00:00,9.485000,0.040280,
2025-10-14T04:02:39.443638+00:00,9.490000,0.075240,
2025-10-14T04:02:39.448638+00:00,9.495000,0.104500,
2025-10-14T04:02:39.453638+00:00,9.500000,0.125400,
2025-10-14T04:02:39.458638+00:00,9.505000,0.137560,
2025-10-14T04:02:39.463638+00:00,9.510000,0.144780,
2025-10-14T04:02:39.468638+00:00,9.515000,0.151240,
2025-10-14T04:02:39.473638+00:00,9.520000,0.153900,
2025-10-14T04:02:39.478638+00:00,9.525000,0.142120,
2025-10-14T04:02:39.483638+00:00,9.530000,0.109440,
2025-10-14T04:02:39.488638+00:00,9.535000,0.068400,
2025-10-14T04:02:39.493638+00:00,9.540000,0.039140,
2025-10-14T04:02:39.498638+00:00,9.545000,0.033440,
2025-10-14T04:02:39.503638+00:00,9.550000,0.041420,
2025-10-14T04:02:39.508638+00:00,9.555000,0.045220,
2025-10-14T04:02:39.513638+00:00,9.560000,0.039520,
2025-10-14T04:02:39.518638+00:00,9.565000,0.031540,
2025-10-14T04:02:39.523638+00:00,9.570000,0.024700,
2025-10-14T04:02:39.528638+00:00,9.575000,0.022420,
2025-10-14T04:02:39.533638+00:00,9.580000,0.021280,
2025-10-14T04:02:39.538638+00:00,9.585000,0.024700,
2025-10-14T04:02:39.543638+00:00,9.590000,0.030020,
2025-10-14T04:02:39.548638+00:00,9.595000,0.035340,
2025-10-14T04:02:39.553638+00:00,9.600000,0.039140,
2025-10-14T04:02:39.558638+00:00,9.605000,0.042560,
2025-10-14T04:02:39.563638+00:00,9.610000,0.050540,
2025-10-14T04:02:39.568638+00:00,9.615000,0.062700,
2025-10-14T04:02:39.573638+00:00,9.620000,0.073340,
2025-10-14T04:02:39.578638+00:00,9.625000,0.080180,
2025-10-14T04:02:39.583638+00:00,9.630000,0.085500,
2025-10-14T04:02:39.588638+00:00,9.635000,0.091200,
2025-10-14T04:02:39.593638+00:00,9.640000,0.097280,
2025-10-14T04:02:39.598638+00:00,9.645000,0.097280,
2025-10-14T04:02:39.603638+00:00,9.650000,0.091580,
2025-10-14T04:02:39.608638+00:00,9.655000,0.080180,
2025-10-14T04:02:39.613638+00:00,9.660000,0.065360,
2025-10-14T04:02:39.618638+00:00,9.665000,0.044840,
2025-10-14T04:02:39.623638+00:00,9.670000,0.022800,
2025-10-14T04:02:39.628638+00:00,9.675000,-0.003420,
2025-10-14T04:02:39.633638+00:00,9.680000,-0.028880,
2025-10-14T04:02:39.638638+00:00,9.685000,-0.055860,
2025-10-14T04:02:39.643638+00:00,9.690000,-0.078280,
2025-10-14T04:02:39.648638+00:00,9.695000,-0.100700,
2025-10-14T04:02:39.653638+00:00,9.700000,-0.120840,
2025-10-14T04:02:39.658638+00:00,9.705000,-0.138700,
2025-10-14T04:02:39.663638+00:00,9.710000,-0.148960,
2025-10-14T04:02:39.668638+00:00,9.715000,-0.151620,
2025-10-14T04:02:39.673638+00:00,9.720000,-0.145540,
2025-10-14T04:02:39.678638+00:00,9.725000,-0.136800,
2025-10-14T04:02:39.683638+00:00,9.730000,-0.126540,
2025-10-14T04:02:39.688638+00:00,9.735000,-0.114760,
2025-10-14T04:02:39.693638+00:00,9.740000,-0.104500,
2025-10-14T04:02:39.698638+00:00,9.745000,-0.095760,
2025-10-14T04:02:39.703638+00:00,9.750000,-0.091580,
2025-10-14T04:02:39.708638+00:00,9.755000,-0.091580,
2025-10-14T04:02:39.713638+00:00,9.760000,-0.095000,
2025-10-14T04:02:39.718638+00:00,9.765000,-0.100320,
2025-10-14T04:02:39.723638+00:00,9.770000,-0.106400,
2025-10-14T04:02:39.728638+00:00,9.775000,-0.108680,
2025-10-14T04:02:39.733638+00:00,9.780000,-0.110200,
2025-10-14T04:02:39.738638+00:00,9.785000,-0.111340,
2025-10-14T04:02:39.743638+00:00,9.790000,-0.106400,
2025-10-14T04:02:39.748638+00:00,9.795000,-0.096900,
2025-10-14T04:02:39.753638+00:00,9.800000,-0.077900,
2025-10-14T04:02:39.758638+00:00,9.805000,-0.052820,
2025-10-14T04:02:39.763638+00:00,9.810000,-0.025460,
2025-10-14T04:02:39.768638+00:00,9.815000,0.000000,
2025-10-14T04:02:39.773638+00:00,9.820000,0.025080,
2025-10-14T04:02:39.778638+00:00,9.825000,0.045980,
2025-10-14T04:02:39.783638+00:00,9.830000,0.063460,
2025-10-14T04:02:39.788638+00:00,9.835000,0.077520,
2025-10-14T04:02:39.793638+00:00,9.840000,0.090060,
2025-10-14T04:02:39.798638+00:00,9.845000,0.097280,
2025-10-14T04:02:39.803638+00:00,9.850000,0.100320,
2025-10-14T04:02:39.808638+00:00,9.855000,0.100700,
2025-10-14T04:02:39.813638+00:00,9.860000,0.100320,
2025-10-14T04:02:39.818638+00:00,9.865000,0.097660,
2025-10-14T04:02:39.823638+00:00,9.870000,0.094620,
2025-10-14T04:02:39.828638+00:00,9.875000,0.088540,
2025-10-14T04:02:39.833638+00:00,9.880000,0.082840,
2025-10-14T04:02:39.838638+00:00,9.885000,0.077900,
2025-10-14T04:02:39.843638+00:00,9.890000,0.072960,
2025-10-14T04:02:39.848638+00:00,9.895000,0.064220,
2025-10-14T04:02:39.853638+00:00,9.900000,0.055480,
2025-10-14T04:02:39.858638+00:00,9.905000,0.047880,
2025-10-14T04:02:39.863638+00:00,9.910000,0.039520,
2025-10-14T04:02:39.868638+00:00,9.915000,0.032680,
2025-10-14T04:02:39.873638+00:00,9.920000,0.028120,
2025-10-14T04:02:39.878638+00:00,9.925000,0.020140,
2025-10-14T04:02:39.883638+00:00,9.930000,0.012920,
2025-10-14T04:02:39.888638+00:00,9.935000,0.008360,
2025-10-14T04:02:39.893638+00:00,9.940000,0.006460,
2025-10-14T04:02:39.898638+00:00,9.945000,0.005700,
2025-10-14T04:02:39.903638+00:00,9.950000,0.006840,
2025-10-14T04:02:39.908638+00:00,9.955000,0.007980,
2025-10-14T04:02:39.913638+00:00,9.960000,0.011780,
2025-10-14T04:02:39.918638+00:00,9.965000,0.019760,
2025-10-14T04:02:39.923638+00:00,9.970000,0.032300,
2025-10-14T04:02:39.928638+00:00,9.975000,0.042180,
2025-10-14T04:02:39.933638+00:00,9.980000,0.051680,
2025-10-14T04:02:39.938638+00:00,9.985000,0.061560,
2025-10-14T04:02:39.943638+00:00,9.990000,0.069160,
2025-10-14T04:02:39.948638+00:00,9.995000,0.072580,
2025-10-14T04:02:39.953638+00:00,10.000000,0.074100,
2025-10-14T04:02:39.958638+00:00,10.005000,0.073720,
2025-10-14T04:02:39.963638+00:00,10.010000,0.069160,
2025-10-14T04:02:39.968638+00:00,10.015000,0.063840,
2025-10-14T04:02:39.973638+00:00,10.020000,0.060040,
2025-10-14T04:02:39.978638+00:00,10.025000,0.054720,
2025-10-14T04:02:39.983638+00:00,10.030000,0.048260,
2025-10-14T04:02:39.988638+00:00,10.035000,0.042180,
2025-10-14T04:02:39.993638+00:00,10.040000,0.034200,
2025-10-14T04:02:39.998638+00:00,10.045000,0.021280,
2025-10-14T04:02:40.003638+00:00,10.050000,0.011400,
2025-10-14T04:02:40.008638+00:00,10.055000,0.010260,
2025-10-14T04:02:40.013638+00:00,10.060000,0.015960,
2025-10-14T04:02:40.018638+00:00,10.065000,0.024320,
2025-10-14T04:02:40.023638+00:00,10.070000,0.027360,
2025-10-14T04:02:40.028638+00:00,10.075000,0.021280,
2025-10-14T04:02:40.033638+00:00,10.080000,0.015960,
2025-10-14T04:02:40.038638+00:00,10.085000,0.011400,
2025-10-14T04:02:40.043638+00:00,10.090000,0.007980,
2025-10-14T04:02:40.048638+00:00,10.095000,0.005700,
2025-10-14T04:02:40.053638+00:00,10.100000,0.005700,
2025-10-14T04:02:40.058638+00:00,10.105000,0.003800,
2025-10-14T04:02:40.063638+00:00,10.110000,-0.003420,
2025-10-14T04:02:40.068638+00:00,10.115000,-0.009120,
2025-10-14T04:02:40.073638+00:00,10.120000,-0.010640,
2025-10-14T04:02:40.078638+00:00,10.125000,-0.009500,
2025-10-14T04:02:40.083638+00:00,10.130000,-0.004180,
2025-10-14T04:02:40.088638+00:00,10.135000,0.001900,
2025-10-14T04:02:40.093638+00:00,10.140000,0.007980,
2025-10-14T04:02:40.098638+00:00,10.145000,0.009500,
2025-10-14T04:02:40.103638+00:00,10.150000,0.009120,
2025-10-14T04:02:40.108638+00:00,10.155000,0.010260,
2025-10-14T04:02:40.113638+00:00,10.160000,0.012160,
2025-10-14T04:02:40.118638+00:00,10.165000,0.012160,
2025-10-14T04:02:40.123638+00:00,10.170000,0.012540,
2025-10-14T04:02:40.128638+00:00,10.175000,0.013300,
2025-10-14T04:02:40.133638+00:00,10.180000,0.013680,
2025-10-14T04:02:40.138638+00:00,10.185000,0.012160,
2025-10-14T04:02:40.143638+00:00,10.190000,0.009120,
2025-10-14T04:02:40.148638+00:00,10.195000,0.016720,
2025-10-14T04:02:40.153638+00:00,10.200000,0.041800,
2025-10-14T04:02:40.158638+00:00,10.205000,0.058520,
2025-10-14T04:02:40.163638+00:00,10.210000,0.050160,
2025-10-14T04:02:40.168638+00:00,10.215000,0.052820,
2025-10-14T04:02:40.173638+00:00,10.220000,0.137560,
2025-10-14T04:02:40.178638+00:00,10.225000,0.335160,
2025-10-14T04:02:40.183638+00:00,10.230000,0.596600,
2025-10-14T04:02:40.188638+00:00,10.235000,0.765320,
2025-10-14T04:02:40.193638+00:00,10.240000,0.661960,
2025-10-14T04:02:40.198638+00:00,10.245000,0.259160,
2025-10-14T04:02:40.203638+00:00,10.250000,-0.238260,
2025-10-14T04:02:40.208638+00:00,10.255000,-0.554800,
2025-10-14T04:02:40.213638+00:00,10.260000,-0.583680,
2025-10-14T04:02:40.218638+00:00,10.265000,-0.438140,
2025-10-14T04:02:40.223638+00:00,10.270000,-0.293360,
2025-10-14T04:02:40.228638+00:00,10.275000,-0.215840,
2025-10-14T04:02:40.233638+00:00,10.280000,-0.171000,
2025-10-14T04:02:40.238638+00:00,10.285000,-0.134900,
2025-10-14T04:02:40.243638+00:00,10.290000,-0.108300,
2025-10-14T04:02:40.248638+00:00,10.295000,-0.089680,
2025-10-14T04:02:40.253638+00:00,10.300000,-0.075620,
2025-10-14T04:02:40.258638+00:00,10.305000,-0.061180,
2025-10-14T04:02:40.263638+00:00,10.310000,-0.053580,
2025-10-14T04:02:40.268638+00:00,10.315000,-0.047880,
2025-10-14T04:02:40.273638+00:00,10.320000,-0.048260,
2025-10-14T04:02:40.278638+00:00,10.325000,-0.050920,
2025-10-14T04:02:40.283638+00:00,10.330000,-0.054340,
2025-10-14T04:02:40.288638+00:00,10.335000,-0.052820,
2025-10-14T04:02:40.293638+00:00,10.340000,-0.049020,
2025-10-14T04:02:40.298638+00:00,10.345000,-0.042560,
2025-10-14T04:02:40.303638+00:00,10.350000,-0.036100,
2025-10-14T04:02:40.308638+00:00,10.355000,-0.030020,
2025-10-14T04:02:40.313638+00:00,10.360000,-0.027360,
2025-10-14T04:02:40.318638+00:00,10.365000,-0.025080,
2025-10-14T04:02:40.323638+00:00,10.370000,-0.020520,
2025-10-14T04:02:40.328638+00:00,10.375000,-0.018240,
2025-10-14T04:02:40.333638+00:00,10.380000,-0.011780,
2025-10-14T04:02:40.338638+00:00,10.385000,-0.001520,
2025-10-14T04:02:40.343638+00:00,10.390000,0.007980,
2025-10-14T04:02:40.348638+00:00,10.395000,0.017100,
2025-10-14T04:02:40.353638+00:00,10.400000,0.026220,
2025-10-14T04:02:40.358638+00:00,10.405000,0.032300,
2025-10-14T04:02:40.363638+00:00,10.410000,0.037240,
2025-10-14T04:02:40.368638+00:00,10.415000,0.043320,
2025-10-14T04:02:40.373638+00:00,10.420000,0.050540,
2025-10-14T04:02:40.378638+00:00,10.425000,0.057760,
2025-10-14T04:02:40.383638+00:00,10.430000,0.064980,
2025-10-14T04:02:40.388638+00:00,10.435000,0.071060,
2025-10-14T04:02:40.393638+00:00,10.440000,0.075240,
2025-10-14T04:02:40.398638+00:00,10.445000,0.080180,
2025-10-14T04:02:40.403638+00:00,10.450000,0.083220,
2025-10-14T04:02:40.408638+00:00,10.455000,0.080560,
2025-10-14T04:02:40.413638+00:00,10.460000,0.071820,
2025-10-14T04:02:40.418638+00:00,10.465000,0.062700,
2025-10-14T04:02:40.423638+00:00,10.470000,0.050920,
2025-10-14T04:02:40.428638+00:00,10.475000,0.033820,
2025-10-14T04:02:40.433638+00:00,10.480000,0.014440,
2025-10-14T04:02:40.438638+00:00,10.485000,-0.005700,
2025-10-14T04:02:40.443638+00:00,10.490000,-0.024700,
2025-10-14T04:02:40.448638+00:00,10.495000,-0.048260,
2025-10-14T04:02:40.453638+00:00,10.500000,-0.073720,
2025-10-14T04:02:40.458638+00:00,10.505000,-0.101080,
2025-10-14T04:02:40.463638+00:00,10.510000,-0.130720,
2025-10-14T04:02:40.468638+00:00,10.515000,-0.156180,
2025-10-14T04:02:40.473638+00:00,10.520000,-0.177460,
2025-10-14T04:02:40.478638+00:00,10.525000,-0.191900,
2025-10-14T04:02:40.483638+00:00,10.530000,-0.196840,
2025-10-14T04:02:40.488638+00:00,10.535000,-0.196080,
2025-10-14T04:02:40.493638+00:00,10.540000,-0.189620,
2025-10-14T04:02:40.498638+00:00,10.545000,-0.179360,
2025-10-14T04:02:40.503638+00:00,10.550000,-0.167200,
2025-10-14T04:02:40.508638+00:00,10.555000,-0.155040,
2025-10-14T04:02:40.513638+00:00,10.560000,-0.143640,
2025-10-14T04:02:40.518638+00:00,10.565000,-0.131860,
2025-10-14T04:02:40.523638+00:00,10.570000,-0.117420,
2025-10-14T04:02:40.528638+00:00,10.575000,-0.105640,
2025-10-14T04:02:40.533638+00:00,10.580000,-0.099180,
2025-10-14T04:02:40.538638+00:00,10.585000,-0.097280,
2025-10-14T04:02:40.543638+00:00,10.590000,-0.097280,
2025-10-14T04:02:40.548638+00:00,10.595000,-0.097660,
2025-10-14T04:02:40.553638+00:00,10.600000,-0.096520,
2025-10-14T04:02:40.558638+00:00,10.605000,-0.093480,
2025-10-14T04:02:40.563638+00:00,10.610000,-0.089300,
2025-10-14T04:02:40.568638+00:00,10.615000,-0.086640,
2025-10-14T04:02:40.573638+00:00,10.620000,-0.087020,
2025-10-14T04:02:40.578638+00:00,10.625000,-0.088160,
2025-10-14T04:02:40.583638+00:00,10.630000,-0.088540,
2025-10-14T04:02:40.588638+00:00,10.635000,-0.088540,
2025-10-14T04:02:40.593638+00:00,10.640000,-0.090820,
2025-10-14T04:02:40.598638+00:00,10.645000,-0.095000,
2025-10-14T04:02:40.603638+00:00,10.650000,-0.096900,
2025-10-14T04:02:40.608638+00:00,10.655000,-0.091580,
2025-10-14T04:02:40.613638+00:00,10.660000,-0.084360,
2025-10-14T04:02:40.618638+00:00,10.665000,-0.077520,
2025-10-14T04:02:40.623638+00:00,10.670000,-0.072200,
2025-10-14T04:02:40.628638+00:00,10.675000,-0.069540,
2025-10-14T04:02:40.633638+00:00,10.680000,-0.070300,
2025-10-14T04:02:40.638638+00:00,10.685000,-0.070300,
2025-10-14T04:02:40.643638+00:00,10.690000,-0.072200,
2025-10-14T04:02:40.648638+00:00,10.695000,-0.075620,
2025-10-14T04:02:40.653638+00:00,10.700000,-0.076380,
2025-10-14T04:02:40.658638+00:00,10.705000,-0.076000,
2025-10-14T04:02:40.663638+00:00,10.710000,-0.077140,
2025-10-14T04:02:40.668638+00:00,10.715000,-0.077520,
2025-10-14T04:02:40.673638+00:00,10.720000,-0.076000,
2025-10-14T04:02:40.678638+00:00,10.725000,-0.074480,
2025-10-14T04:02:40.683638+00:00,10.730000,-0.072200,
2025-10-14T04:02:40.688638+00:00,10.735000,-0.070300,
2025-10-14T04:02:40.693638+00:00,10.740000,-0.071820,
2025-10-14T04:02:40.698638+00:00,10.745000,-0.073340,
2025-10-14T04:02:40.703638+00:00,10.750000,-0.071820,
2025-10-14T04:02:40.708638+00:00,10.755000,-0.071820,
2025-10-14T04:02:40.713638+00:00,10.760000,-0.071820,
2025-10-14T04:02:40.718638+00:00,10.765000,-0.072960,
2025-10-14T04:02:40.723638+00:00,10.770000,-0.072960,
2025-10-14T04:02:40.728638+00:00,10.775000,-0.073340,
2025-10-14T04:02:40.733638+00:00,10.780000,-0.074860,
2025-10-14T04:02:40.738638+00:00,10.785000,-0.071440,
2025-10-14T04:02:40.743638+00:00,10.790000,-0.067640,
2025-10-14T04:02:40.748638+00:00,10.795000,-0.065740,
2025-10-14T04:02:40.753638+00:00,10.800000,-0.064600,
2025-10-14T04:02:40.758638+00:00,10.805000,-0.064980,
2025-10-14T04:02:40.763638+00:00,10.810000,-0.065740,
2025-10-14T04:02:40.768638+00:00,10.815000,-0.065360,
2025-10-14T04:02:40.773638+00:00,10.820000,-0.062320,
2025-10-14T04:02:40.778638+00:00,10.825000,-0.058520,
2025-10-14T04:02:40.783638+00:00,10.830000,-0.056620,
2025-10-14T04:02:40.788638+00:00,10.835000,-0.053960,
2025-10-14T04:02:40.793638+00:00,10.840000,-0.051680,
2025-10-14T04:02:40.798638+00:00,10.845000,-0.050160,
2025-10-14T04:02:40.803638+00:00,10.850000,-0.049780,
2025-10-14T04:02:40.808638+00:00,10.855000,-0.050160,
2025-10-14T04:02:40.813638+00:00,10.860000,-0.053960,
2025-10-14T04:02:40.818638+00:00,10.865000,-0.054340,
2025-10-14T04:02:40.823638+00:00,10.870000,-0.052060,
2025-10-14T04:02:40.828638+00:00,10.875000,-0.052820,
2025-10-14T04:02:40.833638+00:00,10.880000,-0.054720,
2025-10-14T04:02:40.838638+00:00,10.885000,-0.057000,
2025-10-14T04:02:40.843638+00:00,10.890000,-0.061180,
2025-10-14T04:02:40.848638+00:00,10.895000,-0.067640,
2025-10-14T04:02:40.853638+00:00,10.900000,-0.070680,
2025-10-14T04:02:40.858638+00:00,10.905000,-0.064220,
2025-10-14T04:02:40.863638+00:00,10.910000,-0.053580,
2025-10-14T04:02:40.868638+00:00,10.915000,-0.044080,
2025-10-14T04:02:40.873638+00:00,10.920000,-0.042560,
2025-10-14T04:02:40.878638+00:00,10.925000,-0.048260,
2025-10-14T04:02:40.883638+00:00,10.930000,-0.056620,
2025-10-14T04:02:40.888638+00:00,10.935000,-0.058520,
2025-10-14T04:02:40.893638+00:00,10.940000,-0.058900,
2025-10-14T04:02:40.898638+00:00,10.945000,-0.060420,
2025-10-14T04:02:40.903638+00:00,10.950000,-0.061940,
2025-10-14T04:02:40.908638+00:00,10.955000,-0.066500,
2025-10-14T04:02:40.913638+00:00,10.960000,-0.075620,
2025-10-14T04:02:40.918638+00:00,10.965000,-0.082840,
2025-10-14T04:02:40.923638+00:00,10.970000,-0.083220,
2025-10-14T04:02:40.928638+00:00,10.975000,-0.079040,
2025-10-14T04:02:40.933638+00:00,10.980000,-0.074480,
2025-10-14T04:02:40.938638+00:00,10.985000,-0.071440,
2025-10-14T04:02:40.943638+00:00,10.990000,-0.072960,
2025-10-14T04:02:40.948638+00:00,10.995000,-0.074860,
2025-10-14T04:02:40.953638+00:00,11.000000,-0.072960,
2025-10-14T04:02:40.958638+00:00,11.005000,-0.071820,
2025-10-14T04:02:40.963638+00:00,11.010000,-0.075620,
2025-10-14T04:02:40.968638+00:00,11.015000,-0.080560,
2025-10-14T04:02:40.973638+00:00,11.020000,-0.085880,
2025-10-14T04:02:40.978638+00:00,11.025000,-0.091580,
2025-10-14T04:02:40.983638+00:00,11.030000,-0.093480,
2025-10-14T04:02:40.988638+00:00,11.035000,-0.091960,
2025-10-14T04:02:40.993638+00:00,11.040000,-0.092340,
2025-10-14T04:02:40.998638+00:00,11.045000,-0.087400,
2025-10-14T04:02:41.003638+00:00,11.050000,-0.067260,
2025-10-14T04:02:41.008638+00:00,11.055000,-0.043700,
2025-10-14T04:02:41.013638+00:00,11.060000,-0.037240,
2025-10-14T04:02:41.018638+00:00,11.065000,-0.025460,
2025-10-14T04:02:41.023638+00:00,11.070000,0.047120,
2025-10-14T04:02:41.028638+00:00,11.075000,0.216220,
2025-10-14T04:02:41.033638+00:00,11.080000,0.467780,
2025-10-14T04:02:41.038638+00:00,11.085000,0.690460,
2025-10-14T04:02:41.043638+00:00,11.090000,0.696540,
2025-10-14T04:02:41.048638+00:00,11.095000,0.389120,
2025-10-14T04:02:41.053638+00:00,11.100000,-0.107160,
2025-10-14T04:02:41.058638+00:00,11.105000,-0.515280,
2025-10-14T04:02:41.063638+00:00,11.110000,-0.645240,
2025-10-14T04:02:41.068638+00:00,11.115000,-0.537700,
2025-10-14T04:02:41.073638+00:00,11.120000,-0.374680,
2025-10-14T04:02:41.078638+00:00,11.125000,-0.269420,
2025-10-14T04:02:41.083638+00:00,11.130000,-0.215460,
2025-10-14T04:02:41.088638+00:00,11.135000,-0.176700,
2025-10-14T04:02:41.093638+00:00,11.140000,-0.152000,
2025-10-14T04:02:41.098638+00:00,11.145000,-0.136800,
2025-10-14T04:02:41.103638+00:00,11.150000,-0.123120,
2025-10-14T04:02:41.108638+00:00,11.155000,-0.109820,
2025-10-14T04:02:41.113638+00:00,11.160000,-0.098040,
2025-10-14T04:02:41.118638+00:00,11.165000,-0.088160,
2025-10-14T04:02:41.123638+00:00,11.170000,-0.082080,
2025-10-14T04:02:41.128638+00:00,11.175000,-0.080560,
2025-10-14T04:02:41.133638+00:00,11.180000,-0.081320,
2025-10-14T04:02:41.138638+00:00,11.185000,-0.078660,
2025-10-14T04:02:41.143638+00:00,11.190000,-0.071060,
2025-10-14T04:02:41.148638+00:00,11.195000,-0.063460,
2025-10-14T04:02:41.153638+00:00,11.200000,-0.054720,
2025-10-14T04:02:41.158638+00:00,11.205000,-0.047120,
2025-10-14T04:02:41.163638+00:00,11.210000,-0.040280,
2025-10-14T04:02:41.168638+00:00,11.215000,-0.031920,
2025-10-14T04:02:41.173638+00:00,11.220000,-0.021660,
2025-10-14T04:02:41.178638+00:00,11.225000,-0.013680,
2025-10-14T04:02:41.183638+00:00,11.230000,-0.003800,
2025-10-14T04:02:41.188638+00:00,11.235000,0.005320,
2025-10-14T04:02:41.193638+00:00,11.240000,0.007980,
2025-10-14T04:02:41.198638+00:00,11.245000,0.004940,
2025-10-14T04:02:41.203638+00:00,11.250000,0.003040,
2025-10-14T04:02:41.208638+00:00,11.255000,0.007600,
2025-10-14T04:02:41.213638+00:00,11.260000,0.015580,
2025-10-14T04:02:41.218638+00:00,11.265000,0.021280,
2025-10-14T04:02:41.223638+00:00,11.270000,0.025080,
2025-10-14T04:02:41.228638+00:00,11.275000,0.028500,
2025-10-14T04:02:41.233638+00:00,11.280000,0.034580,
2025-10-14T04:02:41.238638+00:00,11.285000,0.043700,
2025-10-14T04:02:41.243638+00:00,11.290000,0.053580,
2025-10-14T04:02:41.248638+00:00,11.295000,0.061560,
2025-10-14T04:02:41.253638+00:00,11.300000,0.069160,
2025-10-14T04:02:41.258638+00:00,11.305000,0.074860,
2025-10-14T04:02:41.263638+00:00,11.310000,0.074100,
2025-10-14T04:02:41.268638+00:00,11.315000,0.068780,
2025-10-14T04:02:41.273638+00:00,11.320000,0.061560,
2025-10-14T04:02:41.278638+00:00,11.325000,0.049780,
2025-10-14T04:02:41.283638+00:00,11.330000,0.037240,
2025-10-14T04:02:41.288638+00:00,11.335000,0.022040,
2025-10-14T04:02:41.293638+00:00,11.340000,0.004560,
2025-10-14T04:02:41.298638+00:00,11.345000,-0.018620,
2025-10-14T04:02:41.303638+00:00,11.350000,-0.044460,
2025-10-14T04:02:41.308638+00:00,11.355000,-0.075620,
