timestamp_utc,t_rel_sec,ecg_mV,event
2025-11-21T07:38:46.795410+00:00,0.000000,0.000000,
2025-11-21T07:38:46.800410+00:00,0.005000,0.000000,
2025-11-21T07:38:46.805410+00:00,0.010000,-0.001140,
2025-11-21T07:38:46.810410+00:00,0.015000,0.000760,
2025-11-21T07:38:46.815410+00:00,0.020000,0.011780,
2025-11-21T07:38:46.820410+00:00,0.025000,-0.072200,
2025-11-21T07:38:46.825410+00:00,0.030000,0.034200,
2025-11-21T07:38:46.830410+00:00,0.035000,0.354540,
2025-11-21T07:38:46.835410+00:00,0.040000,-0.625100,
2025-11-21T07:38:46.840410+00:00,0.045000,-1.019540,
2025-11-21T07:38:46.845410+00:00,0.050000,2.257960,
2025-11-21T07:38:46.850410+00:00,0.055000,2.872040,
2025-11-21T07:38:46.855410+00:00,0.060000,-4.739360,
2025-11-21T07:38:46.860410+00:00,0.065000,-10.396040,
2025-11-21T07:38:46.865410+00:00,0.070000,0.281580,
2025-11-21T07:38:46.870410+00:00,0.075000,24.064640,
2025-11-21T07:38:46.875410+00:00,0.080000,40.529660,
2025-11-21T07:38:46.880410+00:00,0.085000,36.983500,
2025-11-21T07:38:46.885410+00:00,0.090000,23.173540,
2025-11-21T07:38:46.890410+00:00,0.095000,16.339620,
2025-11-21T07:38:46.895410+00:00,0.100000,18.490800,
2025-11-21T07:38:46.900410+00:00,0.105000,20.076920,
2025-11-21T07:38:46.905410+00:00,0.110000,19.061180,
2025-11-21T07:38:46.910410+00:00,0.115000,18.557300,
2025-11-21T07:38:46.915410+00:00,0.120000,18.396940,
2025-11-21T07:38:46.920410+00:00,0.125000,18.105860,
2025-11-21T07:38:46.925410+00:00,0.130000,17.928780,
2025-11-21T07:38:46.930410+00:00,0.135000,17.814020,
2025-11-21T07:38:46.935410+00:00,0.140000,17.680260,
2025-11-21T07:38:46.940410+00:00,0.145000,17.497860,
2025-11-21T07:38:46.945410+00:00,0.150000,17.302540,
2025-11-21T07:38:46.950410+00:00,0.155000,17.114440,
2025-11-21T07:38:46.955410+00:00,0.160000,16.918360,
2025-11-21T07:38:46.960410+00:00,0.165000,16.707460,
2025-11-21T07:38:46.965410+00:00,0.170000,16.484780,
2025-11-21T07:38:46.970410+00:00,0.175000,16.263620,
2025-11-21T07:38:46.975410+00:00,0.180000,16.050440,
2025-11-21T07:38:46.980410+00:00,0.185000,15.843720,
2025-11-21T07:38:46.985410+00:00,0.190000,15.629780,
2025-11-21T07:38:46.990410+00:00,0.195000,15.401780,
2025-11-21T07:38:46.995410+00:00,0.200000,15.162380,
2025-11-21T07:38:47.000410+00:00,0.205000,14.924880,
2025-11-21T07:38:47.005410+00:00,0.210000,14.696500,
2025-11-21T07:38:47.010410+00:00,0.215000,14.466980,
2025-11-21T07:38:47.015410+00:00,0.220000,14.227200,
2025-11-21T07:38:47.020410+00:00,0.225000,13.985900,
2025-11-21T07:38:47.025410+00:00,0.230000,13.756760,
2025-11-21T07:38:47.030410+00:00,0.235000,13.537500,
2025-11-21T07:38:47.035410+00:00,0.240000,13.307220,
2025-11-21T07:38:47.040410+00:00,0.245000,13.064400,
2025-11-21T07:38:47.045410+00:00,0.250000,12.826520,
2025-11-21T07:38:47.050410+00:00,0.255000,12.610680,
2025-11-21T07:38:47.055410+00:00,0.260000,12.411560,
2025-11-21T07:38:47.060410+00:00,0.265000,12.209780,
2025-11-21T07:38:47.065410+00:00,0.270000,12.007620,
2025-11-21T07:38:47.070410+00:00,0.275000,11.822180,
2025-11-21T07:38:47.075410+00:00,0.280000,11.654600,
2025-11-21T07:38:47.080410+00:00,0.285000,11.493480,
2025-11-21T07:38:47.085410+00:00,0.290000,11.330460,
2025-11-21T07:38:47.090410+00:00,0.295000,11.167820,
2025-11-21T07:38:47.095410+00:00,0.300000,11.008600,
2025-11-21T07:38:47.100410+00:00,0.305000,10.846720,
2025-11-21T07:38:47.105410+00:00,0.310000,10.681800,
2025-11-21T07:38:47.110410+00:00,0.315000,10.521440,
2025-11-21T07:38:47.115410+00:00,0.320000,10.373240,
2025-11-21T07:38:47.120410+00:00,0.325000,10.232260,
2025-11-21T07:38:47.125410+00:00,0.330000,10.089000,
2025-11-21T07:38:47.130410+00:00,0.335000,9.948020,
2025-11-21T07:38:47.135410+00:00,0.340000,9.808560,
2025-11-21T07:38:47.140410+00:00,0.345000,9.651240,
2025-11-21T07:38:47.145410+00:00,0.350000,9.486700,
2025-11-21T07:38:47.150410+00:00,0.355000,9.373080,
2025-11-21T07:38:47.155410+00:00,0.360000,9.300880,
2025-11-21T07:38:47.160410+00:00,0.365000,9.091880,
2025-11-21T07:38:47.165410+00:00,0.370000,8.547340,
2025-11-21T07:38:47.170410+00:00,0.375000,7.648640,
2025-11-21T07:38:47.175410+00:00,0.380000,6.561080,
2025-11-21T07:38:47.180410+00:00,0.385000,5.483020,
2025-11-21T07:38:47.185410+00:00,0.390000,4.542520,
2025-11-21T07:38:47.190410+00:00,0.395000,3.807220,
2025-11-21T07:38:47.195410+00:00,0.400000,3.318160,
2025-11-21T07:38:47.200410+00:00,0.405000,3.043040,
2025-11-21T07:38:47.205410+00:00,0.410000,2.881160,
2025-11-21T07:38:47.210410+00:00,0.415000,2.753860,
2025-11-21T07:38:47.215410+00:00,0.420000,2.652400,
2025-11-21T07:38:47.220410+00:00,0.425000,2.572220,
2025-11-21T07:38:47.225410+00:00,0.430000,2.503060,
2025-11-21T07:38:47.230410+00:00,0.435000,2.441120,
2025-11-21T07:38:47.235410+00:00,0.440000,2.394380,
2025-11-21T07:38:47.240410+00:00,0.445000,2.357140,
2025-11-21T07:38:47.245410+00:00,0.450000,2.316100,
2025-11-21T07:38:47.250410+00:00,0.455000,2.262520,
2025-11-21T07:38:47.255410+00:00,0.460000,2.206280,
2025-11-21T07:38:47.260410+00:00,0.465000,2.159920,
2025-11-21T07:38:47.265410+00:00,0.470000,2.129900,
2025-11-21T07:38:47.270410+00:00,0.475000,2.105960,
2025-11-21T07:38:47.275410+00:00,0.480000,2.072520,
2025-11-21T07:38:47.280410+00:00,0.485000,2.026540,
2025-11-21T07:38:47.285410+00:00,0.490000,1.982460,
2025-11-21T07:38:47.290410+00:00,0.495000,1.947120,
2025-11-21T07:38:47.295410+00:00,0.500000,1.915200,
2025-11-21T07:38:47.300410+00:00,0.505000,1.877200,
2025-11-21T07:38:47.305410+00:00,0.510000,1.836540,
2025-11-21T07:38:47.310410+00:00,0.515000,1.801960,
2025-11-21T07:38:47.315410+00:00,0.520000,1.770040,
2025-11-21T07:38:47.320410+00:00,0.525000,1.738500,
2025-11-21T07:38:47.325410+00:00,0.530000,1.706580,
2025-11-21T07:38:47.330410+00:00,0.535000,1.681880,
2025-11-21T07:38:47.335410+00:00,0.540000,1.662500,
2025-11-21T07:38:47.340410+00:00,0.545000,1.643500,
2025-11-21T07:38:47.345410+00:00,0.550000,1.617280,
2025-11-21T07:38:47.350410+00:00,0.555000,1.589160,
2025-11-21T07:38:47.355410+00:00,0.560000,1.559140,
2025-11-21T07:38:47.360410+00:00,0.565000,1.529500,
2025-11-21T07:38:47.365410+00:00,0.570000,1.501000,
2025-11-21T07:38:47.370410+00:00,0.575000,1.478960,
2025-11-21T07:38:47.375410+00:00,0.580000,1.463000,
2025-11-21T07:38:47.380410+00:00,0.585000,1.439820,
2025-11-21T07:38:47.385410+00:00,0.590000,1.404860,
2025-11-21T07:38:47.390410+00:00,0.595000,1.365720,
2025-11-21T07:38:47.395410+00:00,0.600000,1.338740,
2025-11-21T07:38:47.400410+00:00,0.605000,1.329240,
2025-11-21T07:38:47.405410+00:00,0.610000,1.321260,
2025-11-21T07:38:47.410410+00:00,0.615000,1.302640,
2025-11-21T07:38:47.415410+00:00,0.620000,1.277940,
2025-11-21T07:38:47.420410+00:00,0.625000,1.254000,
2025-11-21T07:38:47.425410+00:00,0.630000,1.235000,
2025-11-21T07:38:47.430410+00:00,0.635000,1.214100,
2025-11-21T07:38:47.435410+00:00,0.640000,1.190540,
2025-11-21T07:38:47.440410+00:00,0.645000,1.170780,
2025-11-21T07:38:47.445410+00:00,0.650000,1.152540,
2025-11-21T07:38:47.450410+00:00,0.655000,1.130880,
2025-11-21T07:38:47.455410+00:00,0.660000,1.103140,
2025-11-21T07:38:47.460410+00:00,0.665000,1.076920,
2025-11-21T07:38:47.465410+00:00,0.670000,1.059820,
2025-11-21T07:38:47.470410+00:00,0.675000,1.046900,
2025-11-21T07:38:47.475410+00:00,0.680000,1.033220,
2025-11-21T07:38:47.480410+00:00,0.685000,1.018020,
2025-11-21T07:38:47.485410+00:00,0.690000,1.002440,
2025-11-21T07:38:47.490410+00:00,0.695000,0.984580,
2025-11-21T07:38:47.495410+00:00,0.700000,0.964820,
2025-11-21T07:38:47.500410+00:00,0.705000,0.946200,
2025-11-21T07:38:47.505410+00:00,0.710000,0.931380,
2025-11-21T07:38:47.510410+00:00,0.715000,0.921500,
2025-11-21T07:38:47.515410+00:00,0.720000,0.910480,
2025-11-21T07:38:47.520410+00:00,0.725000,0.894520,
2025-11-21T07:38:47.525410+00:00,0.730000,0.874760,
2025-11-21T07:38:47.530410+00:00,0.735000,0.853860,
2025-11-21T07:38:47.535410+00:00,0.740000,0.832580,
2025-11-21T07:38:47.540410+00:00,0.745000,0.813200,
2025-11-21T07:38:47.545410+00:00,0.750000,0.802940,
2025-11-21T07:38:47.550410+00:00,0.755000,0.801800,
2025-11-21T07:38:47.555410+00:00,0.760000,0.802180,
2025-11-21T07:38:47.560410+00:00,0.765000,0.790400,
2025-11-21T07:38:47.565410+00:00,0.770000,0.764180,
2025-11-21T07:38:47.570410+00:00,0.775000,0.739100,
2025-11-21T07:38:47.575410+00:00,0.780000,0.726940,
2025-11-21T07:38:47.580410+00:00,0.785000,0.723520,
2025-11-21T07:38:47.585410+00:00,0.790000,0.714780,
2025-11-21T07:38:47.590410+00:00,0.795000,0.694260,
2025-11-21T07:38:47.595410+00:00,0.800000,0.672600,
2025-11-21T07:38:47.600410+00:00,0.805000,0.658540,
2025-11-21T07:38:47.605410+00:00,0.810000,0.654740,
2025-11-21T07:38:47.610410+00:00,0.815000,0.652080,
2025-11-21T07:38:47.615410+00:00,0.820000,0.646760,
2025-11-21T07:38:47.620410+00:00,0.825000,0.633460,
2025-11-21T07:38:47.625410+00:00,0.830000,0.614460,
2025-11-21T07:38:47.630410+00:00,0.835000,0.594320,
2025-11-21T07:38:47.635410+00:00,0.840000,0.579880,
2025-11-21T07:38:47.640410+00:00,0.845000,0.570380,
2025-11-21T07:38:47.645410+00:00,0.850000,0.560880,
2025-11-21T07:38:47.650410+00:00,0.855000,0.543780,
2025-11-21T07:38:47.655410+00:00,0.860000,0.520980,
2025-11-21T07:38:47.660410+00:00,0.865000,0.497040,
2025-11-21T07:38:47.665410+00:00,0.870000,0.475760,
2025-11-21T07:38:47.670410+00:00,0.875000,0.454100,
2025-11-21T07:38:47.675410+00:00,0.880000,0.432440,
2025-11-21T07:38:47.680410+00:00,0.885000,0.413060,
2025-11-21T07:38:47.685410+00:00,0.890000,0.393300,
2025-11-21T07:38:47.690410+00:00,0.895000,0.369740,
2025-11-21T07:38:47.695410+00:00,0.900000,0.338960,
2025-11-21T07:38:47.700410+00:00,0.905000,0.295640,
2025-11-21T07:38:47.705410+00:00,0.910000,0.242440,
2025-11-21T07:38:47.710410+00:00,0.915000,0.185820,
2025-11-21T07:38:47.715410+00:00,0.920000,0.128820,
2025-11-21T07:38:47.720410+00:00,0.925000,0.068400,
2025-11-21T07:38:47.725410+00:00,0.930000,-0.001900,
2025-11-21T07:38:47.730410+00:00,0.935000,-0.078280,
2025-11-21T07:38:47.735410+00:00,0.940000,-0.166820,
2025-11-21T07:38:47.740410+00:00,0.945000,-0.261820,
2025-11-21T07:38:47.745410+00:00,0.950000,-0.355300,
2025-11-21T07:38:47.750410+00:00,0.955000,-0.450300,
2025-11-21T07:38:47.755410+00:00,0.960000,-0.555560,
2025-11-21T07:38:47.760410+00:00,0.965000,-0.653600,
2025-11-21T07:38:47.765410+00:00,0.970000,-0.758480,
2025-11-21T07:38:47.770410+00:00,0.975000,-0.910480,
2025-11-21T07:38:47.775410+00:00,0.980000,-1.069700,
2025-11-21T07:38:47.780410+00:00,0.985000,-1.167740,
2025-11-21T07:38:47.785410+00:00,0.990000,-1.213720,
2025-11-21T07:38:47.790410+00:00,0.995000,-1.259320,
2025-11-21T07:38:47.795410+00:00,1.000000,-1.345960,
2025-11-21T07:38:47.800410+00:00,1.005000,-1.482380,
2025-11-21T07:38:47.805410+00:00,1.010000,-1.681120,
2025-11-21T07:38:47.810410+00:00,1.015000,-1.986640,
2025-11-21T07:38:47.815410+00:00,1.020000,-2.430860,
2025-11-21T07:38:47.820410+00:00,1.025000,-2.956780,
2025-11-21T07:38:47.825410+00:00,1.030000,-3.469780,
2025-11-21T07:38:47.830410+00:00,1.035000,-3.957320,
2025-11-21T07:38:47.835410+00:00,1.040000,-4.431940,
2025-11-21T07:38:47.840410+00:00,1.045000,-4.882620,
2025-11-21T07:38:47.845410+00:00,1.050000,-5.309740,
2025-11-21T07:38:47.850410+00:00,1.055000,-5.696580,
2025-11-21T07:38:47.855410+00:00,1.060000,-6.016920,
2025-11-21T07:38:47.860410+00:00,1.065000,-6.278740,
2025-11-21T07:38:47.865410+00:00,1.070000,-6.448980,
2025-11-21T07:38:47.870410+00:00,1.075000,-6.505600,
2025-11-21T07:38:47.875410+00:00,1.080000,-6.580840,
2025-11-21T07:38:47.880410+00:00,1.085000,-6.687620,
2025-11-21T07:38:47.885410+00:00,1.090000,-6.464940,
2025-11-21T07:38:47.890410+00:00,1.095000,-5.666940,
2025-11-21T07:38:47.895410+00:00,1.100000,-4.715420,
2025-11-21T07:38:47.900410+00:00,1.105000,-4.399260,
2025-11-21T07:38:47.905410+00:00,1.110000,-4.995480,
2025-11-21T07:38:47.910410+00:00,1.115000,-5.974740,
2025-11-21T07:38:47.915410+00:00,1.120000,-6.667480,
2025-11-21T07:38:47.920410+00:00,1.125000,-6.959320,
2025-11-21T07:38:47.925410+00:00,1.130000,-7.125000,
2025-11-21T07:38:47.930410+00:00,1.135000,-7.273580,
2025-11-21T07:38:47.935410+00:00,1.140000,-7.334000,
2025-11-21T07:38:47.940410+00:00,1.145000,-7.319560,
2025-11-21T07:38:47.945410+00:00,1.150000,-7.275480,
2025-11-21T07:38:47.950410+00:00,1.155000,-7.208220,
2025-11-21T07:38:47.955410+00:00,1.160000,-7.130320,
2025-11-21T07:38:47.960410+00:00,1.165000,-7.060400,
2025-11-21T07:38:47.965410+00:00,1.170000,-7.003400,
2025-11-21T07:38:47.970410+00:00,1.175000,-6.933100,
2025-11-21T07:38:47.975410+00:00,1.180000,-6.830880,
2025-11-21T07:38:47.980410+00:00,1.185000,-6.716880,
2025-11-21T07:38:47.985410+00:00,1.190000,-6.620360,
2025-11-21T07:38:47.990410+00:00,1.195000,-6.542840,
2025-11-21T07:38:47.995410+00:00,1.200000,-6.469500,
2025-11-21T07:38:48.000410+00:00,1.205000,-6.384000,
2025-11-21T07:38:48.005410+00:00,1.210000,-6.288620,
2025-11-21T07:38:48.010410+00:00,1.215000,-6.194760,
2025-11-21T07:38:48.015410+00:00,1.220000,-6.105460,
2025-11-21T07:38:48.020410+00:00,1.225000,-6.027180,
2025-11-21T07:38:48.025410+00:00,1.230000,-5.962580,
2025-11-21T07:38:48.030410+00:00,1.235000,-5.893040,
2025-11-21T07:38:48.035410+00:00,1.240000,-5.803360,
2025-11-21T07:38:48.040410+00:00,1.245000,-5.704560,
2025-11-21T07:38:48.045410+00:00,1.250000,-5.620200,
2025-11-21T07:38:48.050410+00:00,1.255000,-5.547240,
2025-11-21T07:38:48.055410+00:00,1.260000,-5.469340,
2025-11-21T07:38:48.060410+00:00,1.265000,-5.380800,
2025-11-21T07:38:48.065410+00:00,1.270000,-5.295300,
2025-11-21T07:38:48.070410+00:00,1.275000,-5.220060,
2025-11-21T07:38:48.075410+00:00,1.280000,-5.153180,
2025-11-21T07:38:48.080410+00:00,1.285000,-5.081740,
2025-11-21T07:38:48.085410+00:00,1.290000,-5.004600,
2025-11-21T07:38:48.090410+00:00,1.295000,-4.924420,
2025-11-21T07:38:48.095410+00:00,1.300000,-4.846520,
2025-11-21T07:38:48.100410+00:00,1.305000,-4.773940,
2025-11-21T07:38:48.105410+00:00,1.310000,-4.710860,
2025-11-21T07:38:48.110410+00:00,1.315000,-4.651960,
2025-11-21T07:38:48.115410+00:00,1.320000,-4.587360,
2025-11-21T07:38:48.120410+00:00,1.325000,-4.518960,
2025-11-21T07:38:48.125410+00:00,1.330000,-4.450560,
2025-11-21T07:38:48.130410+00:00,1.335000,-4.379880,
2025-11-21T07:38:48.135410+00:00,1.340000,-4.309960,
2025-11-21T07:38:48.140410+00:00,1.345000,-4.244980,
2025-11-21T07:38:48.145410+00:00,1.350000,-4.183420,
2025-11-21T07:38:48.150410+00:00,1.355000,-4.115780,
2025-11-21T07:38:48.155410+00:00,1.360000,-4.047380,
2025-11-21T07:38:48.160410+00:00,1.365000,-3.986960,
2025-11-21T07:38:48.165410+00:00,1.370000,-3.936040,
2025-11-21T07:38:48.170410+00:00,1.375000,-3.885500,
2025-11-21T07:38:48.175410+00:00,1.380000,-3.832680,
2025-11-21T07:38:48.180410+00:00,1.385000,-3.777200,
2025-11-21T07:38:48.185410+00:00,1.390000,-3.722480,
2025-11-21T07:38:48.190410+00:00,1.395000,-3.669660,
2025-11-21T07:38:48.195410+00:00,1.400000,-3.617220,
2025-11-21T07:38:48.200410+00:00,1.405000,-3.560980,
2025-11-21T07:38:48.205410+00:00,1.410000,-3.500560,
2025-11-21T07:38:48.210410+00:00,1.415000,-3.441660,
2025-11-21T07:38:48.215410+00:00,1.420000,-3.388460,
2025-11-21T07:38:48.220410+00:00,1.425000,-3.341340,
2025-11-21T07:38:48.225410+00:00,1.430000,-3.299540,
2025-11-21T07:38:48.230410+00:00,1.435000,-3.260780,
2025-11-21T07:38:48.235410+00:00,1.440000,-3.220120,
2025-11-21T07:38:48.240410+00:00,1.445000,-3.172620,
2025-11-21T07:38:48.245410+00:00,1.450000,-3.127400,
2025-11-21T07:38:48.250410+00:00,1.455000,-3.085980,
2025-11-21T07:38:48.255410+00:00,1.460000,-3.038480,
2025-11-21T07:38:48.260410+00:00,1.465000,-2.975400,
2025-11-21T07:38:48.265410+00:00,1.470000,-2.915740,
2025-11-21T07:38:48.270410+00:00,1.475000,-2.891420,
2025-11-21T07:38:48.275410+00:00,1.480000,-2.883820,
2025-11-21T07:38:48.280410+00:00,1.485000,-2.845060,
2025-11-21T07:38:48.285410+00:00,1.490000,-2.769060,
2025-11-21T07:38:48.290410+00:00,1.495000,-2.712440,
2025-11-21T07:38:48.295410+00:00,1.500000,-2.694960,
2025-11-21T07:38:48.300410+00:00,1.505000,-2.675200,
2025-11-21T07:38:48.305410+00:00,1.510000,-2.627700,
2025-11-21T07:38:48.310410+00:00,1.515000,-2.574880,
2025-11-21T07:38:48.315410+00:00,1.520000,-2.538020,
2025-11-21T07:38:48.320410+00:00,1.525000,-2.508380,
2025-11-21T07:38:48.325410+00:00,1.530000,-2.470380,
2025-11-21T07:38:48.330410+00:00,1.535000,-2.420600,
2025-11-21T07:38:48.335410+00:00,1.540000,-2.371960,
2025-11-21T07:38:48.340410+00:00,1.545000,-2.319520,
2025-11-21T07:38:48.345410+00:00,1.550000,-2.265560,
2025-11-21T07:38:48.350410+00:00,1.555000,-2.231360,
2025-11-21T07:38:48.355410+00:00,1.560000,-2.225280,
2025-11-21T07:38:48.360410+00:00,1.565000,-2.220720,
2025-11-21T07:38:48.365410+00:00,1.570000,-2.193360,
2025-11-21T07:38:48.370410+00:00,1.575000,-2.152320,
2025-11-21T07:38:48.375410+00:00,1.580000,-2.113940,
2025-11-21T07:38:48.380410+00:00,1.585000,-2.076700,
2025-11-21T07:38:48.385410+00:00,1.590000,-2.040980,
2025-11-21T07:38:48.390410+00:00,1.595000,-2.015140,
2025-11-21T07:38:48.395410+00:00,1.600000,-1.999560,
2025-11-21T07:38:48.400410+00:00,1.605000,-1.977140,
2025-11-21T07:38:48.405410+00:00,1.610000,-1.938000,
2025-11-21T07:38:48.410410+00:00,1.615000,-1.908360,
2025-11-21T07:38:48.415410+00:00,1.620000,-1.902660,
2025-11-21T07:38:48.420410+00:00,1.625000,-1.900000,
2025-11-21T07:38:48.425410+00:00,1.630000,-1.874160,
2025-11-21T07:38:48.430410+00:00,1.635000,-1.825140,
2025-11-21T07:38:48.435410+00:00,1.640000,-1.768900,
2025-11-21T07:38:48.440410+00:00,1.645000,-1.722920,
2025-11-21T07:38:48.445410+00:00,1.650000,-1.694040,
2025-11-21T07:38:48.450410+00:00,1.655000,-1.677320,
2025-11-21T07:38:48.455410+00:00,1.660000,-1.665920,
2025-11-21T07:38:48.460410+00:00,1.665000,-1.652240,
2025-11-21T07:38:48.465410+00:00,1.670000,-1.633240,
2025-11-21T07:38:48.470410+00:00,1.675000,-1.611580,
2025-11-21T07:38:48.475410+00:00,1.680000,-1.588780,
2025-11-21T07:38:48.480410+00:00,1.685000,-1.553820,
2025-11-21T07:38:48.485410+00:00,1.690000,-1.513540,
2025-11-21T07:38:48.490410+00:00,1.695000,-1.488460,
2025-11-21T07:38:48.495410+00:00,1.700000,-1.478200,
2025-11-21T07:38:48.500410+00:00,1.705000,-1.466420,
2025-11-21T07:38:48.505410+00:00,1.710000,-1.450840,
2025-11-21T07:38:48.510410+00:00,1.715000,-1.434880,
2025-11-21T07:38:48.515410+00:00,1.720000,-1.418160,
2025-11-21T07:38:48.520410+00:00,1.725000,-1.390800,
2025-11-21T07:38:48.525410+00:00,1.730000,-1.355840,
2025-11-21T07:38:48.530410+00:00,1.735000,-1.328480,
2025-11-21T07:38:48.535410+00:00,1.740000,-1.311000,
2025-11-21T07:38:48.540410+00:00,1.745000,-1.299220,
2025-11-21T07:38:48.545410+00:00,1.750000,-1.285160,
2025-11-21T07:38:48.550410+00:00,1.755000,-1.268820,
2025-11-21T07:38:48.555410+00:00,1.760000,-1.251340,
2025-11-21T07:38:48.560410+00:00,1.765000,-1.232340,
2025-11-21T07:38:48.565410+00:00,1.770000,-1.211440,
2025-11-21T07:38:48.570410+00:00,1.775000,-1.195480,
2025-11-21T07:38:48.575410+00:00,1.780000,-1.175340,
2025-11-21T07:38:48.580410+00:00,1.785000,-1.147220,
2025-11-21T07:38:48.585410+00:00,1.790000,-1.116820,
2025-11-21T07:38:48.590410+00:00,1.795000,-1.097440,
2025-11-21T07:38:48.595410+00:00,1.800000,-1.083760,
2025-11-21T07:38:48.600410+00:00,1.805000,-1.083000,
2025-11-21T07:38:48.605410+00:00,1.810000,-1.095540,
2025-11-21T07:38:48.610410+00:00,1.815000,-1.103140,
2025-11-21T07:38:48.615410+00:00,1.820000,-1.072740,
2025-11-21T07:38:48.620410+00:00,1.825000,-1.022200,
2025-11-21T07:38:48.625410+00:00,1.830000,-0.999400,
2025-11-21T07:38:48.630410+00:00,1.835000,-1.014980,
2025-11-21T07:38:48.635410+00:00,1.840000,-1.027140,
2025-11-21T07:38:48.640410+00:00,1.845000,-1.002060,
2025-11-21T07:38:48.645410+00:00,1.850000,-0.951520,
2025-11-21T07:38:48.650410+00:00,1.855000,-0.915040,
2025-11-21T07:38:48.655410+00:00,1.860000,-0.912000,
2025-11-21T07:38:48.660410+00:00,1.865000,-0.923020,
2025-11-21T07:38:48.665410+00:00,1.870000,-0.926440,
2025-11-21T07:38:48.670410+00:00,1.875000,-0.915420,
2025-11-21T07:38:48.675410+00:00,1.880000,-0.893000,
2025-11-21T07:38:48.680410+00:00,1.885000,-0.862600,
2025-11-21T07:38:48.685410+00:00,1.890000,-0.835240,
2025-11-21T07:38:48.690410+00:00,1.895000,-0.822320,
2025-11-21T07:38:48.695410+00:00,1.900000,-0.830300,
2025-11-21T07:38:48.700410+00:00,1.905000,-0.842460,
2025-11-21T07:38:48.705410+00:00,1.910000,-0.834100,
2025-11-21T07:38:48.710410+00:00,1.915000,-0.805980,
2025-11-21T07:38:48.715410+00:00,1.920000,-0.781660,
2025-11-21T07:38:48.720410+00:00,1.925000,-0.770260,
2025-11-21T07:38:48.725410+00:00,1.930000,-0.766080,
2025-11-21T07:38:48.730410+00:00,1.935000,-0.764560,
2025-11-21T07:38:48.735410+00:00,1.940000,-0.764560,
2025-11-21T07:38:48.740410+00:00,1.945000,-0.762660,
2025-11-21T07:38:48.745410+00:00,1.950000,-0.741380,
2025-11-21T07:38:48.750410+00:00,1.955000,-0.706420,
2025-11-21T07:38:48.755410+00:00,1.960000,-0.688560,
2025-11-21T07:38:48.760410+00:00,1.965000,-0.696160,
2025-11-21T07:38:48.765410+00:00,1.970000,-0.699580,
2025-11-21T07:38:48.770410+00:00,1.975000,-0.687420,
2025-11-21T07:38:48.775410+00:00,1.980000,-0.673360,
2025-11-21T07:38:48.780410+00:00,1.985000,-0.669940,
2025-11-21T07:38:48.785410+00:00,1.990000,-0.669180,
2025-11-21T07:38:48.790410+00:00,1.995000,-0.664240,
2025-11-21T07:38:48.795410+00:00,2.000000,-0.656260,
2025-11-21T07:38:48.800410+00:00,2.005000,-0.648280,
2025-11-21T07:38:48.805410+00:00,2.010000,-0.632700,
2025-11-21T07:38:48.810410+00:00,2.015000,-0.610660,
2025-11-21T07:38:48.815410+00:00,2.020000,-0.595460,
2025-11-21T07:38:48.820410+00:00,2.025000,-0.589000,
2025-11-21T07:38:48.825410+00:00,2.030000,-0.581780,
2025-11-21T07:38:48.830410+00:00,2.035000,-0.566960,
2025-11-21T07:38:48.835410+00:00,2.040000,-0.552900,
2025-11-21T07:38:48.840410+00:00,2.045000,-0.549480,
2025-11-21T07:38:48.845410+00:00,2.050000,-0.552900,
2025-11-21T07:38:48.850410+00:00,2.055000,-0.557080,
2025-11-21T07:38:48.855410+00:00,2.060000,-0.558220,
2025-11-21T07:38:48.860410+00:00,2.065000,-0.549480,
2025-11-21T07:38:48.865410+00:00,2.070000,-0.523640,
2025-11-21T07:38:48.870410+00:00,2.075000,-0.495900,
2025-11-21T07:38:48.875410+00:00,2.080000,-0.491340,
2025-11-21T07:38:48.880410+00:00,2.085000,-0.501980,
2025-11-21T07:38:48.885410+00:00,2.090000,-0.506160,
2025-11-21T07:38:48.890410+00:00,2.095000,-0.495520,
2025-11-21T07:38:48.895410+00:00,2.100000,-0.476900,
2025-11-21T07:38:48.900410+00:00,2.105000,-0.468920,
2025-11-21T07:38:48.905410+00:00,2.110000,-0.473100,
2025-11-21T07:38:48.910410+00:00,2.115000,-0.471200,
2025-11-21T07:38:48.915410+00:00,2.120000,-0.455620,
2025-11-21T07:38:48.920410+00:00,2.125000,-0.442320,
2025-11-21T07:38:48.925410+00:00,2.130000,-0.443840,
2025-11-21T07:38:48.930410+00:00,2.135000,-0.443840,
2025-11-21T07:38:48.935410+00:00,2.140000,-0.425980,
2025-11-21T07:38:48.940410+00:00,2.145000,-0.403940,
2025-11-21T07:38:48.945410+00:00,2.150000,-0.409260,
2025-11-21T07:38:48.950410+00:00,2.155000,-0.434340,
2025-11-21T07:38:48.955410+00:00,2.160000,-0.443460,
2025-11-21T07:38:48.960410+00:00,2.165000,-0.423700,
2025-11-21T07:38:48.965410+00:00,2.170000,-0.402800,
2025-11-21T07:38:48.970410+00:00,2.175000,-0.403560,
2025-11-21T07:38:48.975410+00:00,2.180000,-0.405460,
2025-11-21T07:38:48.980410+00:00,2.185000,-0.385700,
2025-11-21T07:38:48.985410+00:00,2.190000,-0.354540,
2025-11-21T07:38:48.990410+00:00,2.195000,-0.342760,
2025-11-21T07:38:48.995410+00:00,2.200000,-0.358720,
2025-11-21T07:38:49.000410+00:00,2.205000,-0.375820,
2025-11-21T07:38:49.005410+00:00,2.210000,-0.373160,
2025-11-21T07:38:49.010410+00:00,2.215000,-0.361760,
2025-11-21T07:38:49.015410+00:00,2.220000,-0.357960,
2025-11-21T07:38:49.020410+00:00,2.225000,-0.357200,
2025-11-21T07:38:49.025410+00:00,2.230000,-0.345040,
2025-11-21T07:38:49.030410+00:00,2.235000,-0.327180,
2025-11-21T07:38:49.035410+00:00,2.240000,-0.315400,
2025-11-21T07:38:49.040410+00:00,2.245000,-0.316540,
2025-11-21T07:38:49.045410+00:00,2.250000,-0.320340,
2025-11-21T07:38:49.050410+00:00,2.255000,-0.323760,
2025-11-21T07:38:49.055410+00:00,2.260000,-0.325660,
2025-11-21T07:38:49.060410+00:00,2.265000,-0.319960,
2025-11-21T07:38:49.065410+00:00,2.270000,-0.300200,
2025-11-21T07:38:49.070410+00:00,2.275000,-0.278540,
2025-11-21T07:38:49.075410+00:00,2.280000,-0.267520,
2025-11-21T07:38:49.080410+00:00,2.285000,-0.272080,
2025-11-21T07:38:49.085410+00:00,2.290000,-0.286140,
2025-11-21T07:38:49.090410+00:00,2.295000,-0.291080,
2025-11-21T07:38:49.095410+00:00,2.300000,-0.283860,
2025-11-21T07:38:49.100410+00:00,2.305000,-0.273600,
2025-11-21T07:38:49.105410+00:00,2.310000,-0.262580,
2025-11-21T07:38:49.110410+00:00,2.315000,-0.251940,
2025-11-21T07:38:49.115410+00:00,2.320000,-0.245860,
2025-11-21T07:38:49.120410+00:00,2.325000,-0.249660,
2025-11-21T07:38:49.125410+00:00,2.330000,-0.261820,
2025-11-21T07:38:49.130410+00:00,2.335000,-0.267140,
2025-11-21T07:38:49.135410+00:00,2.340000,-0.253080,
2025-11-21T07:38:49.140410+00:00,2.345000,-0.235980,
2025-11-21T07:38:49.145410+00:00,2.350000,-0.244340,
2025-11-21T07:38:49.150410+00:00,2.355000,-0.263720,
2025-11-21T07:38:49.155410+00:00,2.360000,-0.260300,
2025-11-21T07:38:49.160410+00:00,2.365000,-0.230660,
2025-11-21T07:38:49.165410+00:00,2.370000,-0.210900,
2025-11-21T07:38:49.170410+00:00,2.375000,-0.229520,
2025-11-21T07:38:49.175410+00:00,2.380000,-0.267520,
2025-11-21T07:38:49.180410+00:00,2.385000,-0.270180,
2025-11-21T07:38:49.185410+00:00,2.390000,-0.234080,
2025-11-21T07:38:49.190410+00:00,2.395000,-0.207480,
2025-11-21T07:38:49.195410+00:00,2.400000,-0.210900,
2025-11-21T07:38:49.200410+00:00,2.405000,-0.228000,
2025-11-21T07:38:49.205410+00:00,2.410000,-0.239020,
2025-11-21T07:38:49.210410+00:00,2.415000,-0.247000,
2025-11-21T07:38:49.215410+00:00,2.420000,-0.256500,
2025-11-21T07:38:49.220410+00:00,2.425000,-0.256500,
2025-11-21T07:38:49.225410+00:00,2.430000,-0.238260,
2025-11-21T07:38:49.230410+00:00,2.435000,-0.208240,
2025-11-21T07:38:49.235410+00:00,2.440000,-0.185060,
2025-11-21T07:38:49.240410+00:00,2.445000,-0.171000,
2025-11-21T07:38:49.245410+00:00,2.450000,-0.167200,
2025-11-21T07:38:49.250410+00:00,2.455000,-0.181640,
2025-11-21T07:38:49.255410+00:00,2.460000,-0.206340,
2025-11-21T07:38:49.260410+00:00,2.465000,-0.213560,
2025-11-21T07:38:49.265410+00:00,2.470000,-0.194940,
2025-11-21T07:38:49.270410+00:00,2.475000,-0.173660,
2025-11-21T07:38:49.275410+00:00,2.480000,-0.171000,
2025-11-21T07:38:49.280410+00:00,2.485000,-0.185440,
2025-11-21T07:38:49.285410+00:00,2.490000,-0.203680,
2025-11-21T07:38:49.290410+00:00,2.495000,-0.209760,
2025-11-21T07:38:49.295410+00:00,2.500000,-0.197980,
2025-11-21T07:38:49.300410+00:00,2.505000,-0.177080,
2025-11-21T07:38:49.305410+00:00,2.510000,-0.164160,
2025-11-21T07:38:49.310410+00:00,2.515000,-0.171760,
2025-11-21T07:38:49.315410+00:00,2.520000,-0.185440,
2025-11-21T07:38:49.320410+00:00,2.525000,-0.179360,
2025-11-21T07:38:49.325410+00:00,2.530000,-0.155800,
2025-11-21T07:38:49.330410+00:00,2.535000,-0.142120,
2025-11-21T07:38:49.335410+00:00,2.540000,-0.153520,
2025-11-21T07:38:49.340410+00:00,2.545000,-0.173280,
2025-11-21T07:38:49.345410+00:00,2.550000,-0.176700,
2025-11-21T07:38:49.350410+00:00,2.555000,-0.163780,
2025-11-21T07:38:49.355410+00:00,2.560000,-0.152760,
2025-11-21T07:38:49.360410+00:00,2.565000,-0.146680,
2025-11-21T07:38:49.365410+00:00,2.570000,-0.145160,
2025-11-21T07:38:49.370410+00:00,2.575000,-0.154660,
2025-11-21T07:38:49.375410+00:00,2.580000,-0.177460,
2025-11-21T07:38:49.380410+00:00,2.585000,-0.189240,
2025-11-21T07:38:49.385410+00:00,2.590000,-0.172900,
2025-11-21T07:38:49.390410+00:00,2.595000,-0.133760,
2025-11-21T07:38:49.395410+00:00,2.600000,-0.110960,
2025-11-21T07:38:49.400410+00:00,2.605000,-0.126540,
2025-11-21T07:38:49.405410+00:00,2.610000,-0.159980,
2025-11-21T07:38:49.410410+00:00,2.615000,-0.160360,
2025-11-21T07:38:49.415410+00:00,2.620000,-0.125020,
2025-11-21T07:38:49.420410+00:00,2.625000,-0.100320,
2025-11-21T07:38:49.425410+00:00,2.630000,-0.109820,
2025-11-21T07:38:49.430410+00:00,2.635000,-0.130340,
2025-11-21T07:38:49.435410+00:00,2.640000,-0.126920,
2025-11-21T07:38:49.440410+00:00,2.645000,-0.109440,
2025-11-21T07:38:49.445410+00:00,2.650000,-0.110200,
2025-11-21T07:38:49.450410+00:00,2.655000,-0.139080,
2025-11-21T07:38:49.455410+00:00,2.660000,-0.163780,
2025-11-21T07:38:49.460410+00:00,2.665000,-0.161120,
2025-11-21T07:38:49.465410+00:00,2.670000,-0.143640,
2025-11-21T07:38:49.470410+00:00,2.675000,-0.132620,
2025-11-21T07:38:49.475410+00:00,2.680000,-0.135280,
2025-11-21T07:38:49.480410+00:00,2.685000,-0.141740,
2025-11-21T07:38:49.485410+00:00,2.690000,-0.139080,
2025-11-21T07:38:49.490410+00:00,2.695000,-0.123120,
2025-11-21T07:38:49.495410+00:00,2.700000,-0.104120,
2025-11-21T07:38:49.500410+00:00,2.705000,-0.095380,
2025-11-21T07:38:49.505410+00:00,2.710000,-0.099940,
2025-11-21T07:38:49.510410+00:00,2.715000,-0.110960,
2025-11-21T07:38:49.515410+00:00,2.720000,-0.124640,
2025-11-21T07:38:49.520410+00:00,2.725000,-0.138700,
2025-11-21T07:38:49.525410+00:00,2.730000,-0.142880,
2025-11-21T07:38:49.530410+00:00,2.735000,-0.123500,
2025-11-21T07:38:49.535410+00:00,2.740000,-0.097280,
2025-11-21T07:38:49.540410+00:00,2.745000,-0.089680,
2025-11-21T07:38:49.545410+00:00,2.750000,-0.101080,
2025-11-21T07:38:49.550410+00:00,2.755000,-0.111340,
2025-11-21T07:38:49.555410+00:00,2.760000,-0.108680,
2025-11-21T07:38:49.560410+00:00,2.765000,-0.093480,
2025-11-21T07:38:49.565410+00:00,2.770000,-0.077900,
2025-11-21T07:38:49.570410+00:00,2.775000,-0.072960,
2025-11-21T07:38:49.575410+00:00,2.780000,-0.085500,
2025-11-21T07:38:49.580410+00:00,2.785000,-0.104880,
2025-11-21T07:38:49.585410+00:00,2.790000,-0.115900,
2025-11-21T07:38:49.590410+00:00,2.795000,-0.110200,
2025-11-21T07:38:49.595410+00:00,2.800000,-0.099560,
2025-11-21T07:38:49.600410+00:00,2.805000,-0.108300,
2025-11-21T07:38:49.605410+00:00,2.810000,-0.123880,
2025-11-21T07:38:49.610410+00:00,2.815000,-0.120080,
2025-11-21T07:38:49.615410+00:00,2.820000,-0.099940,
2025-11-21T07:38:49.620410+00:00,2.825000,-0.088160,
2025-11-21T07:38:49.625410+00:00,2.830000,-0.095760,
2025-11-21T07:38:49.630410+00:00,2.835000,-0.112860,
2025-11-21T07:38:49.635410+00:00,2.840000,-0.129960,
2025-11-21T07:38:49.640410+00:00,2.845000,-0.133760,
2025-11-21T07:38:49.645410+00:00,2.850000,-0.117420,
2025-11-21T07:38:49.650410+00:00,2.855000,-0.092720,
2025-11-21T07:38:49.655410+00:00,2.860000,-0.078280,
2025-11-21T07:38:49.660410+00:00,2.865000,-0.082080,
2025-11-21T07:38:49.665410+00:00,2.870000,-0.092720,
2025-11-21T07:38:49.670410+00:00,2.875000,-0.090060,
2025-11-21T07:38:49.675410+00:00,2.880000,-0.083220,
2025-11-21T07:38:49.680410+00:00,2.885000,-0.087020,
2025-11-21T07:38:49.685410+00:00,2.890000,-0.101840,
2025-11-21T07:38:49.690410+00:00,2.895000,-0.113620,
2025-11-21T07:38:49.695410+00:00,2.900000,-0.113620,
2025-11-21T07:38:49.700410+00:00,2.905000,-0.104880,
2025-11-21T07:38:49.705410+00:00,2.910000,-0.096900,
2025-11-21T07:38:49.710410+00:00,2.915000,-0.086640,
2025-11-21T07:38:49.715410+00:00,2.920000,-0.068780,
2025-11-21T07:38:49.720410+00:00,2.925000,-0.047500,
2025-11-21T07:38:49.725410+00:00,2.930000,-0.048640,
2025-11-21T07:38:49.730410+00:00,2.935000,-0.080180,
2025-11-21T07:38:49.735410+00:00,2.940000,-0.105640,
2025-11-21T07:38:49.740410+00:00,2.945000,-0.096900,
2025-11-21T07:38:49.745410+00:00,2.950000,-0.069540,
2025-11-21T07:38:49.750410+00:00,2.955000,-0.064980,
2025-11-21T07:38:49.755410+00:00,2.960000,-0.083220,
2025-11-21T07:38:49.760410+00:00,2.965000,-0.094240,
2025-11-21T07:38:49.765410+00:00,2.970000,-0.076000,
2025-11-21T07:38:49.770410+00:00,2.975000,-0.056240,
2025-11-21T07:38:49.775410+00:00,2.980000,-0.068400,
2025-11-21T07:38:49.780410+00:00,2.985000,-0.096900,
2025-11-21T07:38:49.785410+00:00,2.990000,-0.112860,
2025-11-21T07:38:49.790410+00:00,2.995000,-0.107160,
2025-11-21T07:38:49.795410+00:00,3.000000,-0.087780,
2025-11-21T07:38:49.800410+00:00,3.005000,-0.067640,
2025-11-21T07:38:49.805410+00:00,3.010000,-0.061940,
2025-11-21T07:38:49.810410+00:00,3.015000,-0.076000,
2025-11-21T07:38:49.815410+00:00,3.020000,-0.095380,
2025-11-21T07:38:49.820410+00:00,3.025000,-0.099940,
2025-11-21T07:38:49.825410+00:00,3.030000,-0.079420,
2025-11-21T07:38:49.830410+00:00,3.035000,-0.054340,
2025-11-21T07:38:49.835410+00:00,3.040000,-0.050160,
2025-11-21T07:38:49.840410+00:00,3.045000,-0.068400,
2025-11-21T07:38:49.845410+00:00,3.050000,-0.088920,
2025-11-21T07:38:49.850410+00:00,3.055000,-0.099560,
2025-11-21T07:38:49.855410+00:00,3.060000,-0.101840,
2025-11-21T07:38:49.860410+00:00,3.065000,-0.091960,
2025-11-21T07:38:49.865410+00:00,3.070000,-0.068780,
2025-11-21T07:38:49.870410+00:00,3.075000,-0.052060,
2025-11-21T07:38:49.875410+00:00,3.080000,-0.060800,
2025-11-21T07:38:49.880410+00:00,3.085000,-0.086640,
2025-11-21T07:38:49.885410+00:00,3.090000,-0.104120,
2025-11-21T07:38:49.890410+00:00,3.095000,-0.103740,
2025-11-21T07:38:49.895410+00:00,3.100000,-0.090820,
2025-11-21T07:38:49.900410+00:00,3.105000,-0.079420,
2025-11-21T07:38:49.905410+00:00,3.110000,-0.071440,
2025-11-21T07:38:49.910410+00:00,3.115000,-0.073340,
2025-11-21T07:38:49.915410+00:00,3.120000,-0.082460,
2025-11-21T07:38:49.920410+00:00,3.125000,-0.083980,
2025-11-21T07:38:49.925410+00:00,3.130000,-0.061180,
2025-11-21T07:38:49.930410+00:00,3.135000,-0.023940,
2025-11-21T07:38:49.935410+00:00,3.140000,-0.007600,
2025-11-21T07:38:49.940410+00:00,3.145000,-0.025840,
2025-11-21T07:38:49.945410+00:00,3.150000,-0.060420,
2025-11-21T07:38:49.950410+00:00,3.155000,-0.091960,
2025-11-21T07:38:49.955410+00:00,3.160000,-0.099940,
2025-11-21T07:38:49.960410+00:00,3.165000,-0.074100,
2025-11-21T07:38:49.965410+00:00,3.170000,-0.033820,
2025-11-21T07:38:49.970410+00:00,3.175000,-0.025460,
2025-11-21T07:38:49.975410+00:00,3.180000,-0.057380,
2025-11-21T07:38:49.980410+00:00,3.185000,-0.094240,
2025-11-21T07:38:49.985410+00:00,3.190000,-0.099180,
2025-11-21T07:38:49.990410+00:00,3.195000,-0.072960,
2025-11-21T07:38:49.995410+00:00,3.200000,-0.041800,
2025-11-21T07:38:50.000410+00:00,3.205000,-0.026220,
2025-11-21T07:38:50.005410+00:00,3.210000,-0.030020,
2025-11-21T07:38:50.010410+00:00,3.215000,-0.039520,
2025-11-21T07:38:50.015410+00:00,3.220000,-0.034960,
2025-11-21T07:38:50.020410+00:00,3.225000,-0.022800,
2025-11-21T07:38:50.025410+00:00,3.230000,-0.029260,
2025-11-21T07:38:50.030410+00:00,3.235000,-0.062700,
2025-11-21T07:38:50.035410+00:00,3.240000,-0.091960,
2025-11-21T07:38:50.040410+00:00,3.245000,-0.088540,
2025-11-21T07:38:50.045410+00:00,3.250000,-0.064980,
2025-11-21T07:38:50.050410+00:00,3.255000,-0.053200,
2025-11-21T07:38:50.055410+00:00,3.260000,-0.051680,
2025-11-21T07:38:50.060410+00:00,3.265000,-0.042940,
2025-11-21T07:38:50.065410+00:00,3.270000,-0.032680,
2025-11-21T07:38:50.070410+00:00,3.275000,-0.047500,
2025-11-21T07:38:50.075410+00:00,3.280000,-0.073720,
2025-11-21T07:38:50.080410+00:00,3.285000,-0.082460,
2025-11-21T07:38:50.085410+00:00,3.290000,-0.073340,
2025-11-21T07:38:50.090410+00:00,3.295000,-0.066120,
2025-11-21T07:38:50.095410+00:00,3.300000,-0.064980,
2025-11-21T07:38:50.100410+00:00,3.305000,-0.059280,
2025-11-21T07:38:50.105410+00:00,3.310000,-0.050160,
2025-11-21T07:38:50.110410+00:00,3.315000,-0.045980,
2025-11-21T07:38:50.115410+00:00,3.320000,-0.049780,
2025-11-21T07:38:50.120410+00:00,3.325000,-0.046740,
2025-11-21T07:38:50.125410+00:00,3.330000,-0.034580,
2025-11-21T07:38:50.130410+00:00,3.335000,-0.030400,
2025-11-21T07:38:50.135410+00:00,3.340000,-0.039140,
2025-11-21T07:38:50.140410+00:00,3.345000,-0.051680,
2025-11-21T07:38:50.145410+00:00,3.350000,-0.062700,
2025-11-21T07:38:50.150410+00:00,3.355000,-0.061560,
2025-11-21T07:38:50.155410+00:00,3.360000,-0.052060,
2025-11-21T07:38:50.160410+00:00,3.365000,-0.050160,
2025-11-21T07:38:50.165410+00:00,3.370000,-0.061940,
2025-11-21T07:38:50.170410+00:00,3.375000,-0.069160,
2025-11-21T07:38:50.175410+00:00,3.380000,-0.056620,
2025-11-21T07:38:50.180410+00:00,3.385000,-0.040660,
2025-11-21T07:38:50.185410+00:00,3.390000,-0.044080,
2025-11-21T07:38:50.190410+00:00,3.395000,-0.066880,
2025-11-21T07:38:50.195410+00:00,3.400000,-0.081700,
2025-11-21T07:38:50.200410+00:00,3.405000,-0.076380,
2025-11-21T07:38:50.205410+00:00,3.410000,-0.074860,
2025-11-21T07:38:50.210410+00:00,3.415000,-0.083220,
2025-11-21T07:38:50.215410+00:00,3.420000,-0.081320,
2025-11-21T07:38:50.220410+00:00,3.425000,-0.058900,
2025-11-21T07:38:50.225410+00:00,3.430000,-0.036100,
2025-11-21T07:38:50.230410+00:00,3.435000,-0.027740,
2025-11-21T07:38:50.235410+00:00,3.440000,-0.036860,
2025-11-21T07:38:50.240410+00:00,3.445000,-0.047120,
2025-11-21T07:38:50.245410+00:00,3.450000,-0.052060,
2025-11-21T07:38:50.250410+00:00,3.455000,-0.056240,
2025-11-21T07:38:50.255410+00:00,3.460000,-0.062700,
2025-11-21T07:38:50.260410+00:00,3.465000,-0.063460,
2025-11-21T07:38:50.265410+00:00,3.470000,-0.053580,
2025-11-21T07:38:50.270410+00:00,3.475000,-0.040280,
2025-11-21T07:38:50.275410+00:00,3.480000,-0.032680,
2025-11-21T07:38:50.280410+00:00,3.485000,-0.039140,
2025-11-21T07:38:50.285410+00:00,3.490000,-0.055860,
2025-11-21T07:38:50.290410+00:00,3.495000,-0.065740,
2025-11-21T07:38:50.295410+00:00,3.500000,-0.060800,
2025-11-21T07:38:50.300410+00:00,3.505000,-0.050540,
2025-11-21T07:38:50.305410+00:00,3.510000,-0.046740,
2025-11-21T07:38:50.310410+00:00,3.515000,-0.053200,
2025-11-21T07:38:50.315410+00:00,3.520000,-0.059660,
2025-11-21T07:38:50.320410+00:00,3.525000,-0.059660,
2025-11-21T07:38:50.325410+00:00,3.530000,-0.053960,
2025-11-21T07:38:50.330410+00:00,3.535000,-0.052820,
2025-11-21T07:38:50.335410+00:00,3.540000,-0.064980,
2025-11-21T07:38:50.340410+00:00,3.545000,-0.078660,
2025-11-21T07:38:50.345410+00:00,3.550000,-0.071820,
2025-11-21T07:38:50.350410+00:00,3.555000,-0.050540,
2025-11-21T07:38:50.355410+00:00,3.560000,-0.036100,
2025-11-21T07:38:50.360410+00:00,3.565000,-0.041800,
2025-11-21T07:38:50.365410+00:00,3.570000,-0.055100,
2025-11-21T07:38:50.370410+00:00,3.575000,-0.057380,
2025-11-21T07:38:50.375410+00:00,3.580000,-0.046360,
2025-11-21T07:38:50.380410+00:00,3.585000,-0.034200,
2025-11-21T07:38:50.385410+00:00,3.590000,-0.031920,
2025-11-21T07:38:50.390410+00:00,3.595000,-0.041040,
2025-11-21T07:38:50.395410+00:00,3.600000,-0.045980,
2025-11-21T07:38:50.400410+00:00,3.605000,-0.041800,
2025-11-21T07:38:50.405410+00:00,3.610000,-0.042560,
2025-11-21T07:38:50.410410+00:00,3.615000,-0.056620,
2025-11-21T07:38:50.415410+00:00,3.620000,-0.072960,
2025-11-21T07:38:50.420410+00:00,3.625000,-0.071440,
2025-11-21T07:38:50.425410+00:00,3.630000,-0.055100,
2025-11-21T07:38:50.430410+00:00,3.635000,-0.049780,
2025-11-21T07:38:50.435410+00:00,3.640000,-0.057000,
2025-11-21T07:38:50.440410+00:00,3.645000,-0.059660,
2025-11-21T07:38:50.445410+00:00,3.650000,-0.052440,
2025-11-21T07:38:50.450410+00:00,3.655000,-0.045980,
2025-11-21T07:38:50.455410+00:00,3.660000,-0.040280,
2025-11-21T07:38:50.460410+00:00,3.665000,-0.027360,
2025-11-21T07:38:50.465410+00:00,3.670000,-0.018620,
2025-11-21T07:38:50.470410+00:00,3.675000,-0.030780,
2025-11-21T07:38:50.475410+00:00,3.680000,-0.049400,
2025-11-21T07:38:50.480410+00:00,3.685000,-0.052060,
2025-11-21T07:38:50.485410+00:00,3.690000,-0.042560,
2025-11-21T07:38:50.490410+00:00,3.695000,-0.038000,
2025-11-21T07:38:50.495410+00:00,3.700000,-0.052820,
2025-11-21T07:38:50.500410+00:00,3.705000,-0.074860,
2025-11-21T07:38:50.505410+00:00,3.710000,-0.085880,
2025-11-21T07:38:50.510410+00:00,3.715000,-0.081320,
2025-11-21T07:38:50.515410+00:00,3.720000,-0.060040,
2025-11-21T07:38:50.520410+00:00,3.725000,-0.027740,
2025-11-21T07:38:50.525410+00:00,3.730000,-0.005320,
2025-11-21T07:38:50.530410+00:00,3.735000,-0.015580,
2025-11-21T07:38:50.535410+00:00,3.740000,-0.050160,
2025-11-21T07:38:50.540410+00:00,3.745000,-0.074100,
2025-11-21T07:38:50.545410+00:00,3.750000,-0.068780,
2025-11-21T07:38:50.550410+00:00,3.755000,-0.048640,
2025-11-21T07:38:50.555410+00:00,3.760000,-0.039900,
2025-11-21T07:38:50.560410+00:00,3.765000,-0.047500,
2025-11-21T07:38:50.565410+00:00,3.770000,-0.060040,
2025-11-21T07:38:50.570410+00:00,3.775000,-0.068020,
2025-11-21T07:38:50.575410+00:00,3.780000,-0.068400,
2025-11-21T07:38:50.580410+00:00,3.785000,-0.062320,
2025-11-21T07:38:50.585410+00:00,3.790000,-0.058900,
2025-11-21T07:38:50.590410+00:00,3.795000,-0.059280,
2025-11-21T07:38:50.595410+00:00,3.800000,-0.051300,
2025-11-21T07:38:50.600410+00:00,3.805000,-0.034580,
2025-11-21T07:38:50.605410+00:00,3.810000,-0.026600,
2025-11-21T07:38:50.610410+00:00,3.815000,-0.034580,
2025-11-21T07:38:50.615410+00:00,3.820000,-0.049780,
2025-11-21T07:38:50.620410+00:00,3.825000,-0.060800,
2025-11-21T07:38:50.625410+00:00,3.830000,-0.062320,
2025-11-21T07:38:50.630410+00:00,3.835000,-0.062700,
2025-11-21T07:38:50.635410+00:00,3.840000,-0.065740,
2025-11-21T07:38:50.640410+00:00,3.845000,-0.064980,
2025-11-21T07:38:50.645410+00:00,3.850000,-0.061560,
2025-11-21T07:38:50.650410+00:00,3.855000,-0.057000,
2025-11-21T07:38:50.655410+00:00,3.860000,-0.050540,
2025-11-21T07:38:50.660410+00:00,3.865000,-0.041040,
2025-11-21T07:38:50.665410+00:00,3.870000,-0.040660,
2025-11-21T07:38:50.670410+00:00,3.875000,-0.050160,
2025-11-21T07:38:50.675410+00:00,3.880000,-0.061940,
2025-11-21T07:38:50.680410+00:00,3.885000,-0.066500,
2025-11-21T07:38:50.685410+00:00,3.890000,-0.063460,
2025-11-21T07:38:50.690410+00:00,3.895000,-0.056620,
2025-11-21T07:38:50.695410+00:00,3.900000,-0.058900,
2025-11-21T07:38:50.700410+00:00,3.905000,-0.068780,
2025-11-21T07:38:50.705410+00:00,3.910000,-0.074480,
2025-11-21T07:38:50.710410+00:00,3.915000,-0.068400,
2025-11-21T07:38:50.715410+00:00,3.920000,-0.055480,
2025-11-21T07:38:50.720410+00:00,3.925000,-0.055480,
2025-11-21T07:38:50.725410+00:00,3.930000,-0.064600,
2025-11-21T07:38:50.730410+00:00,3.935000,-0.058140,
2025-11-21T07:38:50.735410+00:00,3.940000,-0.033060,
2025-11-21T07:38:50.740410+00:00,3.945000,-0.017860,
2025-11-21T07:38:50.745410+00:00,3.950000,-0.030780,
2025-11-21T07:38:50.750410+00:00,3.955000,-0.041420,
2025-11-21T07:38:50.755410+00:00,3.960000,-0.028500,
2025-11-21T07:38:50.760410+00:00,3.965000,-0.014060,
2025-11-21T07:38:50.765410+00:00,3.970000,-0.030780,
2025-11-21T07:38:50.770410+00:00,3.975000,-0.063080,
2025-11-21T07:38:50.775410+00:00,3.980000,-0.071440,
2025-11-21T07:38:50.780410+00:00,3.985000,-0.050160,
2025-11-21T07:38:50.785410+00:00,3.990000,-0.032680,
2025-11-21T07:38:50.790410+00:00,3.995000,-0.035340,
2025-11-21T07:38:50.795410+00:00,4.000000,-0.041800,
2025-11-21T07:38:50.800410+00:00,4.005000,-0.041040,
2025-11-21T07:38:50.805410+00:00,4.010000,-0.035720,
2025-11-21T07:38:50.810410+00:00,4.015000,-0.040280,
2025-11-21T07:38:50.815410+00:00,4.020000,-0.054720,
2025-11-21T07:38:50.820410+00:00,4.025000,-0.060040,
2025-11-21T07:38:50.825410+00:00,4.030000,-0.049020,
2025-11-21T07:38:50.830410+00:00,4.035000,-0.044840,
2025-11-21T07:38:50.835410+00:00,4.040000,-0.063840,
2025-11-21T07:38:50.840410+00:00,4.045000,-0.081320,
2025-11-21T07:38:50.845410+00:00,4.050000,-0.071060,
2025-11-21T07:38:50.850410+00:00,4.055000,-0.042940,
2025-11-21T07:38:50.855410+00:00,4.060000,-0.028120,
2025-11-21T07:38:50.860410+00:00,4.065000,-0.037240,
2025-11-21T07:38:50.865410+00:00,4.070000,-0.049400,
2025-11-21T07:38:50.870410+00:00,4.075000,-0.039900,
2025-11-21T07:38:50.875410+00:00,4.080000,-0.023560,
2025-11-21T07:38:50.880410+00:00,4.085000,-0.025080,
2025-11-21T07:38:50.885410+00:00,4.090000,-0.040280,
2025-11-21T07:38:50.890410+00:00,4.095000,-0.051680,
2025-11-21T07:38:50.895410+00:00,4.100000,-0.050920,
2025-11-21T07:38:50.900410+00:00,4.105000,-0.038760,
2025-11-21T07:38:50.905410+00:00,4.110000,-0.028120,
2025-11-21T07:38:50.910410+00:00,4.115000,-0.025840,
2025-11-21T07:38:50.915410+00:00,4.120000,-0.027360,
2025-11-21T07:38:50.920410+00:00,4.125000,-0.022800,
2025-11-21T07:38:50.925410+00:00,4.130000,-0.018240,
2025-11-21T07:38:50.930410+00:00,4.135000,-0.011020,
2025-11-21T07:38:50.935410+00:00,4.140000,-0.007980,
2025-11-21T07:38:50.940410+00:00,4.145000,-0.021660,
2025-11-21T07:38:50.945410+00:00,4.150000,-0.041040,
2025-11-21T07:38:50.950410+00:00,4.155000,-0.047880,
2025-11-21T07:38:50.955410+00:00,4.160000,-0.034200,
2025-11-21T07:38:50.960410+00:00,4.165000,-0.014060,
2025-11-21T07:38:50.965410+00:00,4.170000,-0.012920,
2025-11-21T07:38:50.970410+00:00,4.175000,-0.030020,
2025-11-21T07:38:50.975410+00:00,4.180000,-0.049400,
2025-11-21T07:38:50.980410+00:00,4.185000,-0.057000,
2025-11-21T07:38:50.985410+00:00,4.190000,-0.053200,
2025-11-21T07:38:50.990410+00:00,4.195000,-0.047120,
2025-11-21T07:38:50.995410+00:00,4.200000,-0.042180,
2025-11-21T07:38:51.000410+00:00,4.205000,-0.043700,
2025-11-21T07:38:51.005410+00:00,4.210000,-0.055860,
2025-11-21T07:38:51.010410+00:00,4.215000,-0.068780,
2025-11-21T07:38:51.015410+00:00,4.220000,-0.071820,
2025-11-21T07:38:51.020410+00:00,4.225000,-0.058900,
2025-11-21T07:38:51.025410+00:00,4.230000,-0.038380,
2025-11-21T07:38:51.030410+00:00,4.235000,-0.026220,
2025-11-21T07:38:51.035410+00:00,4.240000,-0.026980,
2025-11-21T07:38:51.040410+00:00,4.245000,-0.034580,
2025-11-21T07:38:51.045410+00:00,4.250000,-0.037240,
2025-11-21T07:38:51.050410+00:00,4.255000,-0.034580,
2025-11-21T07:38:51.055410+00:00,4.260000,-0.038760,
2025-11-21T07:38:51.060410+00:00,4.265000,-0.048260,
2025-11-21T07:38:51.065410+00:00,4.270000,-0.051300,
2025-11-21T07:38:51.070410+00:00,4.275000,-0.042560,
2025-11-21T07:38:51.075410+00:00,4.280000,-0.032300,
2025-11-21T07:38:51.080410+00:00,4.285000,-0.027360,
2025-11-21T07:38:51.085410+00:00,4.290000,-0.035720,
2025-11-21T07:38:51.090410+00:00,4.295000,-0.057760,
2025-11-21T07:38:51.095410+00:00,4.300000,-0.074480,
2025-11-21T07:38:51.100410+00:00,4.305000,-0.076380,
2025-11-21T07:38:51.105410+00:00,4.310000,-0.069160,
2025-11-21T07:38:51.110410+00:00,4.315000,-0.060420,
2025-11-21T07:38:51.115410+00:00,4.320000,-0.058140,
2025-11-21T07:38:51.120410+00:00,4.325000,-0.066120,
2025-11-21T07:38:51.125410+00:00,4.330000,-0.067260,
2025-11-21T07:38:51.130410+00:00,4.335000,-0.053200,
2025-11-21T07:38:51.135410+00:00,4.340000,-0.035340,
2025-11-21T07:38:51.140410+00:00,4.345000,-0.030020,
2025-11-21T07:38:51.145410+00:00,4.350000,-0.039140,
2025-11-21T07:38:51.150410+00:00,4.355000,-0.045980,
2025-11-21T07:38:51.155410+00:00,4.360000,-0.036100,
2025-11-21T07:38:51.160410+00:00,4.365000,-0.020140,
2025-11-21T07:38:51.165410+00:00,4.370000,-0.021280,
2025-11-21T07:38:51.170410+00:00,4.375000,-0.038760,
2025-11-21T07:38:51.175410+00:00,4.380000,-0.048640,
2025-11-21T07:38:51.180410+00:00,4.385000,-0.045220,
2025-11-21T07:38:51.185410+00:00,4.390000,-0.047880,
2025-11-21T07:38:51.190410+00:00,4.395000,-0.053960,
2025-11-21T07:38:51.195410+00:00,4.400000,-0.055480,
2025-11-21T07:38:51.200410+00:00,4.405000,-0.054340,
2025-11-21T07:38:51.205410+00:00,4.410000,-0.058900,
2025-11-21T07:38:51.210410+00:00,4.415000,-0.064980,
2025-11-21T07:38:51.215410+00:00,4.420000,-0.066500,
2025-11-21T07:38:51.220410+00:00,4.425000,-0.058520,
2025-11-21T07:38:51.225410+00:00,4.430000,-0.048640,
2025-11-21T07:38:51.230410+00:00,4.435000,-0.045220,
2025-11-21T07:38:51.235410+00:00,4.440000,-0.048640,
2025-11-21T07:38:51.240410+00:00,4.445000,-0.051680,
2025-11-21T07:38:51.245410+00:00,4.450000,-0.060040,
2025-11-21T07:38:51.250410+00:00,4.455000,-0.066120,
2025-11-21T07:38:51.255410+00:00,4.460000,-0.056620,
2025-11-21T07:38:51.260410+00:00,4.465000,-0.042940,
2025-11-21T07:38:51.265410+00:00,4.470000,-0.044080,
2025-11-21T07:38:51.270410+00:00,4.475000,-0.057380,
2025-11-21T07:38:51.275410+00:00,4.480000,-0.069540,
2025-11-21T07:38:51.280410+00:00,4.485000,-0.066880,
2025-11-21T07:38:51.285410+00:00,4.490000,-0.047500,
2025-11-21T07:38:51.290410+00:00,4.495000,-0.034580,
2025-11-21T07:38:51.295410+00:00,4.500000,-0.037240,
2025-11-21T07:38:51.300410+00:00,4.505000,-0.042560,
2025-11-21T07:38:51.305410+00:00,4.510000,-0.046360,
2025-11-21T07:38:51.310410+00:00,4.515000,-0.053580,
2025-11-21T07:38:51.315410+00:00,4.520000,-0.049400,
2025-11-21T07:38:51.320410+00:00,4.525000,-0.034200,
2025-11-21T07:38:51.325410+00:00,4.530000,-0.029260,
2025-11-21T07:38:51.330410+00:00,4.535000,-0.041800,
2025-11-21T07:38:51.335410+00:00,4.540000,-0.055100,
2025-11-21T07:38:51.340410+00:00,4.545000,-0.056240,
2025-11-21T07:38:51.345410+00:00,4.550000,-0.047500,
2025-11-21T07:38:51.350410+00:00,4.555000,-0.049400,
2025-11-21T07:38:51.355410+00:00,4.560000,-0.060040,
2025-11-21T07:38:51.360410+00:00,4.565000,-0.059280,
2025-11-21T07:38:51.365410+00:00,4.570000,-0.043320,
2025-11-21T07:38:51.370410+00:00,4.575000,-0.028880,
2025-11-21T07:38:51.375410+00:00,4.580000,-0.031160,
2025-11-21T07:38:51.380410+00:00,4.585000,-0.041800,
2025-11-21T07:38:51.385410+00:00,4.590000,-0.050540,
2025-11-21T07:38:51.390410+00:00,4.595000,-0.054340,
2025-11-21T07:38:51.395410+00:00,4.600000,-0.055100,
2025-11-21T07:38:51.400410+00:00,4.605000,-0.054720,
2025-11-21T07:38:51.405410+00:00,4.610000,-0.051300,
2025-11-21T07:38:51.410410+00:00,4.615000,-0.041040,
2025-11-21T07:38:51.415410+00:00,4.620000,-0.036480,
2025-11-21T07:38:51.420410+00:00,4.625000,-0.047120,
2025-11-21T07:38:51.425410+00:00,4.630000,-0.055480,
2025-11-21T07:38:51.430410+00:00,4.635000,-0.045600,
2025-11-21T07:38:51.435410+00:00,4.640000,-0.028880,
2025-11-21T07:38:51.440410+00:00,4.645000,-0.033440,
2025-11-21T07:38:51.445410+00:00,4.650000,-0.056240,
2025-11-21T07:38:51.450410+00:00,4.655000,-0.080940,
2025-11-21T07:38:51.455410+00:00,4.660000,-0.086260,
2025-11-21T07:38:51.460410+00:00,4.665000,-0.073720,
2025-11-21T07:38:51.465410+00:00,4.670000,-0.058900,
2025-11-21T07:38:51.470410+00:00,4.675000,-0.046740,
2025-11-21T07:38:51.475410+00:00,4.680000,-0.038000,
2025-11-21T07:38:51.480410+00:00,4.685000,-0.032680,
2025-11-21T07:38:51.485410+00:00,4.690000,-0.033820,
2025-11-21T07:38:51.490410+00:00,4.695000,-0.039140,
2025-11-21T07:38:51.495410+00:00,4.700000,-0.038760,
2025-11-21T07:38:51.500410+00:00,4.705000,-0.032680,
2025-11-21T07:38:51.505410+00:00,4.710000,-0.022420,
2025-11-21T07:38:51.510410+00:00,4.715000,-0.016720,
2025-11-21T07:38:51.515410+00:00,4.720000,-0.019380,
2025-11-21T07:38:51.520410+00:00,4.725000,-0.023560,
2025-11-21T07:38:51.525410+00:00,4.730000,-0.031160,
2025-11-21T07:38:51.530410+00:00,4.735000,-0.040280,
2025-11-21T07:38:51.535410+00:00,4.740000,-0.044080,
2025-11-21T07:38:51.540410+00:00,4.745000,-0.035720,
2025-11-21T07:38:51.545410+00:00,4.750000,-0.024320,
2025-11-21T07:38:51.550410+00:00,4.755000,-0.024320,
2025-11-21T07:38:51.555410+00:00,4.760000,-0.034960,
2025-11-21T07:38:51.560410+00:00,4.765000,-0.043320,
2025-11-21T07:38:51.565410+00:00,4.770000,-0.045600,
2025-11-21T07:38:51.570410+00:00,4.775000,-0.039140,
2025-11-21T07:38:51.575410+00:00,4.780000,-0.035340,
2025-11-21T07:38:51.580410+00:00,4.785000,-0.040280,
2025-11-21T07:38:51.585410+00:00,4.790000,-0.050540,
2025-11-21T07:38:51.590410+00:00,4.795000,-0.045220,
2025-11-21T07:38:51.595410+00:00,4.800000,-0.021280,
2025-11-21T07:38:51.600410+00:00,4.805000,-0.005700,
2025-11-21T07:38:51.605410+00:00,4.810000,-0.019000,
2025-11-21T07:38:51.610410+00:00,4.815000,-0.051680,
2025-11-21T07:38:51.615410+00:00,4.820000,-0.067640,
2025-11-21T07:38:51.620410+00:00,4.825000,-0.056620,
2025-11-21T07:38:51.625410+00:00,4.830000,-0.051680,
2025-11-21T07:38:51.630410+00:00,4.835000,-0.070300,
2025-11-21T07:38:51.635410+00:00,4.840000,-0.083220,
2025-11-21T07:38:51.640410+00:00,4.845000,-0.068780,
2025-11-21T07:38:51.645410+00:00,4.850000,-0.038380,
2025-11-21T07:38:51.650410+00:00,4.855000,-0.023180,
2025-11-21T07:38:51.655410+00:00,4.860000,-0.027740,
2025-11-21T07:38:51.660410+00:00,4.865000,-0.040660,
2025-11-21T07:38:51.665410+00:00,4.870000,-0.047880,
2025-11-21T07:38:51.670410+00:00,4.875000,-0.050160,
2025-11-21T07:38:51.675410+00:00,4.880000,-0.053200,
2025-11-21T07:38:51.680410+00:00,4.885000,-0.057000,
2025-11-21T07:38:51.685410+00:00,4.890000,-0.059280,
2025-11-21T07:38:51.690410+00:00,4.895000,-0.056240,
2025-11-21T07:38:51.695410+00:00,4.900000,-0.049020,
2025-11-21T07:38:51.700410+00:00,4.905000,-0.036860,
2025-11-21T07:38:51.705410+00:00,4.910000,-0.026980,
2025-11-21T07:38:51.710410+00:00,4.915000,-0.027740,
2025-11-21T07:38:51.715410+00:00,4.920000,-0.028500,
2025-11-21T07:38:51.720410+00:00,4.925000,-0.033440,
2025-11-21T07:38:51.725410+00:00,4.930000,-0.038380,
2025-11-21T07:38:51.730410+00:00,4.935000,-0.033440,
2025-11-21T07:38:51.735410+00:00,4.940000,-0.028120,
2025-11-21T07:38:51.740410+00:00,4.945000,-0.040280,
2025-11-21T07:38:51.745410+00:00,4.950000,-0.062700,
2025-11-21T07:38:51.750410+00:00,4.955000,-0.066880,
2025-11-21T07:38:51.755410+00:00,4.960000,-0.037620,
2025-11-21T07:38:51.760410+00:00,4.965000,-0.001140,
2025-11-21T07:38:51.765410+00:00,4.970000,0.013680,
2025-11-21T07:38:51.770410+00:00,4.975000,-0.004180,
2025-11-21T07:38:51.775410+00:00,4.980000,-0.036480,
2025-11-21T07:38:51.780410+00:00,4.985000,-0.061180,
2025-11-21T07:38:51.785410+00:00,4.990000,-0.064600,
2025-11-21T07:38:51.790410+00:00,4.995000,-0.041800,
2025-11-21T07:38:51.795410+00:00,5.000000,-0.011400,
2025-11-21T07:38:51.800410+00:00,5.005000,-0.002660,
2025-11-21T07:38:51.805410+00:00,5.010000,-0.022040,
2025-11-21T07:38:51.810410+00:00,5.015000,-0.045980,
2025-11-21T07:38:51.815410+00:00,5.020000,-0.048640,
2025-11-21T07:38:51.820410+00:00,5.025000,-0.039140,
2025-11-21T07:38:51.825410+00:00,5.030000,-0.047120,
2025-11-21T07:38:51.830410+00:00,5.035000,-0.067640,
2025-11-21T07:38:51.835410+00:00,5.040000,-0.074480,
2025-11-21T07:38:51.840410+00:00,5.045000,-0.058520,
2025-11-21T07:38:51.845410+00:00,5.050000,-0.038000,
2025-11-21T07:38:51.850410+00:00,5.055000,-0.029260,
2025-11-21T07:38:51.855410+00:00,5.060000,-0.030020,
2025-11-21T07:38:51.860410+00:00,5.065000,-0.039900,
2025-11-21T07:38:51.865410+00:00,5.070000,-0.055480,
2025-11-21T07:38:51.870410+00:00,5.075000,-0.069920,
2025-11-21T07:38:51.875410+00:00,5.080000,-0.074100,
2025-11-21T07:38:51.880410+00:00,5.085000,-0.060420,
2025-11-21T07:38:51.885410+00:00,5.090000,-0.039900,
2025-11-21T07:38:51.890410+00:00,5.095000,-0.034580,
2025-11-21T07:38:51.895410+00:00,5.100000,-0.046360,
2025-11-21T07:38:51.900410+00:00,5.105000,-0.054340,
2025-11-21T07:38:51.905410+00:00,5.110000,-0.045600,
2025-11-21T07:38:51.910410+00:00,5.115000,-0.030020,
2025-11-21T07:38:51.915410+00:00,5.120000,-0.023940,
2025-11-21T07:38:51.920410+00:00,5.125000,-0.033820,
2025-11-21T07:38:51.925410+00:00,5.130000,-0.045980,
2025-11-21T07:38:51.930410+00:00,5.135000,-0.046740,
2025-11-21T07:38:51.935410+00:00,5.140000,-0.050160,
2025-11-21T07:38:51.940410+00:00,5.145000,-0.058900,
2025-11-21T07:38:51.945410+00:00,5.150000,-0.061940,
2025-11-21T07:38:51.950410+00:00,5.155000,-0.051680,
2025-11-21T07:38:51.955410+00:00,5.160000,-0.037240,
2025-11-21T07:38:51.960410+00:00,5.165000,-0.036480,
2025-11-21T07:38:51.965410+00:00,5.170000,-0.048260,
2025-11-21T07:38:51.970410+00:00,5.175000,-0.066120,
2025-11-21T07:38:51.975410+00:00,5.180000,-0.066880,
2025-11-21T07:38:51.980410+00:00,5.185000,-0.050540,
2025-11-21T07:38:51.985410+00:00,5.190000,-0.038760,
2025-11-21T07:38:51.990410+00:00,5.195000,-0.050160,
2025-11-21T07:38:51.995410+00:00,5.200000,-0.071440,
2025-11-21T07:38:52.000410+00:00,5.205000,-0.071440,
2025-11-21T07:38:52.005410+00:00,5.210000,-0.050160,
2025-11-21T07:38:52.010410+00:00,5.215000,-0.043700,
2025-11-21T07:38:52.015410+00:00,5.220000,-0.060800,
2025-11-21T07:38:52.020410+00:00,5.225000,-0.068020,
2025-11-21T07:38:52.025410+00:00,5.230000,-0.050920,
2025-11-21T07:38:52.030410+00:00,5.235000,-0.031920,
2025-11-21T07:38:52.035410+00:00,5.240000,-0.039520,
2025-11-21T07:38:52.040410+00:00,5.245000,-0.060800,
2025-11-21T07:38:52.045410+00:00,5.250000,-0.069540,
2025-11-21T07:38:52.050410+00:00,5.255000,-0.060040,
2025-11-21T07:38:52.055410+00:00,5.260000,-0.054340,
2025-11-21T07:38:52.060410+00:00,5.265000,-0.062320,
2025-11-21T07:38:52.065410+00:00,5.270000,-0.061940,
2025-11-21T07:38:52.070410+00:00,5.275000,-0.044840,
2025-11-21T07:38:52.075410+00:00,5.280000,-0.031920,
2025-11-21T07:38:52.080410+00:00,5.285000,-0.035340,
2025-11-21T07:38:52.085410+00:00,5.290000,-0.042180,
2025-11-21T07:38:52.090410+00:00,5.295000,-0.040280,
2025-11-21T07:38:52.095410+00:00,5.300000,-0.034960,
2025-11-21T07:38:52.100410+00:00,5.305000,-0.050920,
2025-11-21T07:38:52.105410+00:00,5.310000,-0.080940,
2025-11-21T07:38:52.110410+00:00,5.315000,-0.093480,
2025-11-21T07:38:52.115410+00:00,5.320000,-0.077520,
2025-11-21T07:38:52.120410+00:00,5.325000,-0.052060,
2025-11-21T07:38:52.125410+00:00,5.330000,-0.037620,
2025-11-21T07:38:52.130410+00:00,5.335000,-0.039900,
2025-11-21T07:38:52.135410+00:00,5.340000,-0.051680,
2025-11-21T07:38:52.140410+00:00,5.345000,-0.063080,
2025-11-21T07:38:52.145410+00:00,5.350000,-0.063080,
2025-11-21T07:38:52.150410+00:00,5.355000,-0.058900,
2025-11-21T07:38:52.155410+00:00,5.360000,-0.057380,
2025-11-21T07:38:52.160410+00:00,5.365000,-0.054340,
2025-11-21T07:38:52.165410+00:00,5.370000,-0.047500,
2025-11-21T07:38:52.170410+00:00,5.375000,-0.040280,
2025-11-21T07:38:52.175410+00:00,5.380000,-0.027740,
2025-11-21T07:38:52.180410+00:00,5.385000,-0.011780,
2025-11-21T07:38:52.185410+00:00,5.390000,-0.004940,
2025-11-21T07:38:52.190410+00:00,5.395000,-0.020140,
2025-11-21T07:38:52.195410+00:00,5.400000,-0.057380,
2025-11-21T07:38:52.200410+00:00,5.405000,-0.081320,
2025-11-21T07:38:52.205410+00:00,5.410000,-0.074100,
2025-11-21T07:38:52.210410+00:00,5.415000,-0.056620,
2025-11-21T07:38:52.215410+00:00,5.420000,-0.056620,
2025-11-21T07:38:52.220410+00:00,5.425000,-0.059280,
2025-11-21T07:38:52.225410+00:00,5.430000,-0.041040,
2025-11-21T07:38:52.230410+00:00,5.435000,-0.019000,
2025-11-21T07:38:52.235410+00:00,5.440000,-0.021660,
2025-11-21T07:38:52.240410+00:00,5.445000,-0.046360,
2025-11-21T07:38:52.245410+00:00,5.450000,-0.064980,
2025-11-21T07:38:52.250410+00:00,5.455000,-0.060040,
2025-11-21T07:38:52.255410+00:00,5.460000,-0.046360,
2025-11-21T07:38:52.260410+00:00,5.465000,-0.044080,
2025-11-21T07:38:52.265410+00:00,5.470000,-0.048640,
2025-11-21T07:38:52.270410+00:00,5.475000,-0.049780,
2025-11-21T07:38:52.275410+00:00,5.480000,-0.048640,
2025-11-21T07:38:52.280410+00:00,5.485000,-0.049400,
2025-11-21T07:38:52.285410+00:00,5.490000,-0.051300,
2025-11-21T07:38:52.290410+00:00,5.495000,-0.055860,
2025-11-21T07:38:52.295410+00:00,5.500000,-0.062320,
2025-11-21T07:38:52.300410+00:00,5.505000,-0.065360,
2025-11-21T07:38:52.305410+00:00,5.510000,-0.050540,
2025-11-21T07:38:52.310410+00:00,5.515000,-0.031540,
2025-11-21T07:38:52.315410+00:00,5.520000,-0.027360,
2025-11-21T07:38:52.320410+00:00,5.525000,-0.033440,
2025-11-21T07:38:52.325410+00:00,5.530000,-0.038760,
2025-11-21T07:38:52.330410+00:00,5.535000,-0.042560,
2025-11-21T07:38:52.335410+00:00,5.540000,-0.047500,
2025-11-21T07:38:52.340410+00:00,5.545000,-0.048640,
2025-11-21T07:38:52.345410+00:00,5.550000,-0.048260,
2025-11-21T07:38:52.350410+00:00,5.555000,-0.050540,
2025-11-21T07:38:52.355410+00:00,5.560000,-0.055860,
2025-11-21T07:38:52.360410+00:00,5.565000,-0.057000,
2025-11-21T07:38:52.365410+00:00,5.570000,-0.041040,
2025-11-21T07:38:52.370410+00:00,5.575000,-0.021280,
2025-11-21T07:38:52.375410+00:00,5.580000,-0.023560,
2025-11-21T07:38:52.380410+00:00,5.585000,-0.038380,
2025-11-21T07:38:52.385410+00:00,5.590000,-0.043320,
2025-11-21T07:38:52.390410+00:00,5.595000,-0.041420,
2025-11-21T07:38:52.395410+00:00,5.600000,-0.045980,
2025-11-21T07:38:52.400410+00:00,5.605000,-0.047880,
2025-11-21T07:38:52.405410+00:00,5.610000,-0.034200,
2025-11-21T07:38:52.410410+00:00,5.615000,-0.012540,
2025-11-21T07:38:52.415410+00:00,5.620000,-0.006080,
2025-11-21T07:38:52.420410+00:00,5.625000,-0.022800,
2025-11-21T07:38:52.425410+00:00,5.630000,-0.038760,
2025-11-21T07:38:52.430410+00:00,5.635000,-0.027740,
2025-11-21T07:38:52.435410+00:00,5.640000,-0.006080,
2025-11-21T07:38:52.440410+00:00,5.645000,-0.004180,
2025-11-21T07:38:52.445410+00:00,5.650000,-0.034960,
2025-11-21T07:38:52.450410+00:00,5.655000,-0.065740,
2025-11-21T07:38:52.455410+00:00,5.660000,-0.064220,
2025-11-21T07:38:52.460410+00:00,5.665000,-0.034200,
2025-11-21T07:38:52.465410+00:00,5.670000,-0.010640,
2025-11-21T07:38:52.470410+00:00,5.675000,-0.010260,
2025-11-21T07:38:52.475410+00:00,5.680000,-0.026980,
2025-11-21T07:38:52.480410+00:00,5.685000,-0.041800,
2025-11-21T07:38:52.485410+00:00,5.690000,-0.043700,
2025-11-21T07:38:52.490410+00:00,5.695000,-0.039900,
2025-11-21T07:38:52.495410+00:00,5.700000,-0.041420,
2025-11-21T07:38:52.500410+00:00,5.705000,-0.051300,
2025-11-21T07:38:52.505410+00:00,5.710000,-0.066120,
2025-11-21T07:38:52.510410+00:00,5.715000,-0.067260,
2025-11-21T07:38:52.515410+00:00,5.720000,-0.049020,
2025-11-21T07:38:52.520410+00:00,5.725000,-0.028880,
2025-11-21T07:38:52.525410+00:00,5.730000,-0.024700,
2025-11-21T07:38:52.530410+00:00,5.735000,-0.033820,
2025-11-21T07:38:52.535410+00:00,5.740000,-0.039900,
2025-11-21T07:38:52.540410+00:00,5.745000,-0.034200,
2025-11-21T07:38:52.545410+00:00,5.750000,-0.025840,
2025-11-21T07:38:52.550410+00:00,5.755000,-0.027360,
2025-11-21T07:38:52.555410+00:00,5.760000,-0.044460,
2025-11-21T07:38:52.560410+00:00,5.765000,-0.066500,
2025-11-21T07:38:52.565410+00:00,5.770000,-0.073340,
2025-11-21T07:38:52.570410+00:00,5.775000,-0.060040,
2025-11-21T07:38:52.575410+00:00,5.780000,-0.039520,
2025-11-21T07:38:52.580410+00:00,5.785000,-0.033820,
2025-11-21T07:38:52.585410+00:00,5.790000,-0.045220,
2025-11-21T07:38:52.590410+00:00,5.795000,-0.056620,
2025-11-21T07:38:52.595410+00:00,5.800000,-0.050920,
2025-11-21T07:38:52.600410+00:00,5.805000,-0.030780,
2025-11-21T07:38:52.605410+00:00,5.810000,-0.025080,
2025-11-21T07:38:52.610410+00:00,5.815000,-0.037240,
2025-11-21T07:38:52.615410+00:00,5.820000,-0.048640,
2025-11-21T07:38:52.620410+00:00,5.825000,-0.045980,
2025-11-21T07:38:52.625410+00:00,5.830000,-0.042560,
2025-11-21T07:38:52.630410+00:00,5.835000,-0.050160,
2025-11-21T07:38:52.635410+00:00,5.840000,-0.060420,
2025-11-21T07:38:52.640410+00:00,5.845000,-0.057760,
2025-11-21T07:38:52.645410+00:00,5.850000,-0.040280,
2025-11-21T07:38:52.650410+00:00,5.855000,-0.026980,
2025-11-21T07:38:52.655410+00:00,5.860000,-0.023560,
2025-11-21T07:38:52.660410+00:00,5.865000,-0.021660,
2025-11-21T07:38:52.665410+00:00,5.870000,-0.016720,
2025-11-21T07:38:52.670410+00:00,5.875000,-0.011400,
2025-11-21T07:38:52.675410+00:00,5.880000,-0.014820,
2025-11-21T07:38:52.680410+00:00,5.885000,-0.028120,
2025-11-21T07:38:52.685410+00:00,5.890000,-0.043700,
2025-11-21T07:38:52.690410+00:00,5.895000,-0.056620,
2025-11-21T07:38:52.695410+00:00,5.900000,-0.059660,
2025-11-21T07:38:52.700410+00:00,5.905000,-0.055480,
2025-11-21T07:38:52.705410+00:00,5.910000,-0.048260,
2025-11-21T07:38:52.710410+00:00,5.915000,-0.045600,
2025-11-21T07:38:52.715410+00:00,5.920000,-0.050920,
2025-11-21T07:38:52.720410+00:00,5.925000,-0.063840,
2025-11-21T07:38:52.725410+00:00,5.930000,-0.067260,
2025-11-21T07:38:52.730410+00:00,5.935000,-0.048640,
2025-11-21T07:38:52.735410+00:00,5.940000,-0.032300,
2025-11-21T07:38:52.740410+00:00,5.945000,-0.034200,
2025-11-21T07:38:52.745410+00:00,5.950000,-0.043320,
2025-11-21T07:38:52.750410+00:00,5.955000,-0.042560,
2025-11-21T07:38:52.755410+00:00,5.960000,-0.027740,
2025-11-21T07:38:52.760410+00:00,5.965000,-0.011020,
2025-11-21T07:38:52.765410+00:00,5.970000,-0.011020,
2025-11-21T07:38:52.770410+00:00,5.975000,-0.022800,
2025-11-21T07:38:52.775410+00:00,5.980000,-0.031160,
2025-11-21T07:38:52.780410+00:00,5.985000,-0.035720,
2025-11-21T07:38:52.785410+00:00,5.990000,-0.037240,
2025-11-21T07:38:52.790410+00:00,5.995000,-0.038380,
2025-11-21T07:38:52.795410+00:00,6.000000,-0.042940,
2025-11-21T07:38:52.800410+00:00,6.005000,-0.049020,
2025-11-21T07:38:52.805410+00:00,6.010000,-0.042560,
2025-11-21T07:38:52.810410+00:00,6.015000,-0.029640,
2025-11-21T07:38:52.815410+00:00,6.020000,-0.031160,
2025-11-21T07:38:52.820410+00:00,6.025000,-0.050160,
2025-11-21T07:38:52.825410+00:00,6.030000,-0.064980,
2025-11-21T07:38:52.830410+00:00,6.035000,-0.057760,
2025-11-21T07:38:52.835410+00:00,6.040000,-0.029640,
2025-11-21T07:38:52.840410+00:00,6.045000,-0.013300,
2025-11-21T07:38:52.845410+00:00,6.050000,-0.027360,
2025-11-21T07:38:52.850410+00:00,6.055000,-0.055100,
2025-11-21T07:38:52.855410+00:00,6.060000,-0.066500,
2025-11-21T07:38:52.860410+00:00,6.065000,-0.052440,
2025-11-21T07:38:52.865410+00:00,6.070000,-0.033440,
2025-11-21T07:38:52.870410+00:00,6.075000,-0.027360,
2025-11-21T07:38:52.875410+00:00,6.080000,-0.038760,
2025-11-21T07:38:52.880410+00:00,6.085000,-0.048640,
2025-11-21T07:38:52.885410+00:00,6.090000,-0.044080,
2025-11-21T07:38:52.890410+00:00,6.095000,-0.033060,
2025-11-21T07:38:52.895410+00:00,6.100000,-0.025840,
2025-11-21T07:38:52.900410+00:00,6.105000,-0.028880,
2025-11-21T07:38:52.905410+00:00,6.110000,-0.033440,
2025-11-21T07:38:52.910410+00:00,6.115000,-0.026600,
2025-11-21T07:38:52.915410+00:00,6.120000,-0.019760,
2025-11-21T07:38:52.920410+00:00,6.125000,-0.024700,
2025-11-21T07:38:52.925410+00:00,6.130000,-0.042180,
2025-11-21T07:38:52.930410+00:00,6.135000,-0.055100,
2025-11-21T07:38:52.935410+00:00,6.140000,-0.052820,
2025-11-21T07:38:52.940410+00:00,6.145000,-0.038380,
2025-11-21T07:38:52.945410+00:00,6.150000,-0.020520,
2025-11-21T07:38:52.950410+00:00,6.155000,-0.007980,
2025-11-21T07:38:52.955410+00:00,6.160000,-0.011780,
2025-11-21T07:38:52.960410+00:00,6.165000,-0.031160,
2025-11-21T07:38:52.965410+00:00,6.170000,-0.045220,
2025-11-21T07:38:52.970410+00:00,6.175000,-0.034200,
2025-11-21T07:38:52.975410+00:00,6.180000,-0.022040,
2025-11-21T07:38:52.980410+00:00,6.185000,-0.031920,
2025-11-21T07:38:52.985410+00:00,6.190000,-0.057760,
2025-11-21T07:38:52.990410+00:00,6.195000,-0.068780,
2025-11-21T07:38:52.995410+00:00,6.200000,-0.050920,
2025-11-21T07:38:53.000410+00:00,6.205000,-0.022040,
2025-11-21T07:38:53.005410+00:00,6.210000,-0.019000,
2025-11-21T07:38:53.010410+00:00,6.215000,-0.044080,
2025-11-21T07:38:53.015410+00:00,6.220000,-0.066880,
2025-11-21T07:38:53.020410+00:00,6.225000,-0.057760,
2025-11-21T07:38:53.025410+00:00,6.230000,-0.019000,
2025-11-21T07:38:53.030410+00:00,6.235000,0.011020,
2025-11-21T07:38:53.035410+00:00,6.240000,0.004180,
2025-11-21T07:38:53.040410+00:00,6.245000,-0.023940,
2025-11-21T07:38:53.045410+00:00,6.250000,-0.039900,
2025-11-21T07:38:53.050410+00:00,6.255000,-0.039520,
2025-11-21T07:38:53.055410+00:00,6.260000,-0.037620,
2025-11-21T07:38:53.060410+00:00,6.265000,-0.040280,
2025-11-21T07:38:53.065410+00:00,6.270000,-0.041800,
2025-11-21T07:38:53.070410+00:00,6.275000,-0.042940,
2025-11-21T07:38:53.075410+00:00,6.280000,-0.042180,
2025-11-21T07:38:53.080410+00:00,6.285000,-0.034960,
2025-11-21T07:38:53.085410+00:00,6.290000,-0.022420,
2025-11-21T07:38:53.090410+00:00,6.295000,-0.017100,
2025-11-21T07:38:53.095410+00:00,6.300000,-0.023560,
2025-11-21T07:38:53.100410+00:00,6.305000,-0.037240,
2025-11-21T07:38:53.105410+00:00,6.310000,-0.047500,
2025-11-21T07:38:53.110410+00:00,6.315000,-0.050540,
2025-11-21T07:38:53.115410+00:00,6.320000,-0.048640,
2025-11-21T07:38:53.120410+00:00,6.325000,-0.046740,
2025-11-21T07:38:53.125410+00:00,6.330000,-0.047500,
2025-11-21T07:38:53.130410+00:00,6.335000,-0.049020,
2025-11-21T07:38:53.135410+00:00,6.340000,-0.052820,
2025-11-21T07:38:53.140410+00:00,6.345000,-0.060420,
2025-11-21T07:38:53.145410+00:00,6.350000,-0.062700,
2025-11-21T07:38:53.150410+00:00,6.355000,-0.054340,
2025-11-21T07:38:53.155410+00:00,6.360000,-0.042940,
2025-11-21T07:38:53.160410+00:00,6.365000,-0.040660,
2025-11-21T07:38:53.165410+00:00,6.370000,-0.042940,
2025-11-21T07:38:53.170410+00:00,6.375000,-0.039140,
2025-11-21T07:38:53.175410+00:00,6.380000,-0.026220,
2025-11-21T07:38:53.180410+00:00,6.385000,-0.019760,
2025-11-21T07:38:53.185410+00:00,6.390000,-0.032300,
2025-11-21T07:38:53.190410+00:00,6.395000,-0.043320,
2025-11-21T07:38:53.195410+00:00,6.400000,-0.043700,
2025-11-21T07:38:53.200410+00:00,6.405000,-0.034200,
2025-11-21T07:38:53.205410+00:00,6.410000,-0.025460,
2025-11-21T07:38:53.210410+00:00,6.415000,-0.022800,
2025-11-21T07:38:53.215410+00:00,6.420000,-0.029260,
2025-11-21T07:38:53.220410+00:00,6.425000,-0.034960,
2025-11-21T07:38:53.225410+00:00,6.430000,-0.037620,
2025-11-21T07:38:53.230410+00:00,6.435000,-0.039520,
2025-11-21T07:38:53.235410+00:00,6.440000,-0.040280,
2025-11-21T07:38:53.240410+00:00,6.445000,-0.038000,
2025-11-21T07:38:53.245410+00:00,6.450000,-0.038760,
2025-11-21T07:38:53.250410+00:00,6.455000,-0.047880,
2025-11-21T07:38:53.255410+00:00,6.460000,-0.059280,
2025-11-21T07:38:53.260410+00:00,6.465000,-0.057760,
2025-11-21T07:38:53.265410+00:00,6.470000,-0.039900,
2025-11-21T07:38:53.270410+00:00,6.475000,-0.023940,
2025-11-21T07:38:53.275410+00:00,6.480000,-0.028500,
2025-11-21T07:38:53.280410+00:00,6.485000,-0.039900,
2025-11-21T07:38:53.285410+00:00,6.490000,-0.049020,
2025-11-21T07:38:53.290410+00:00,6.495000,-0.058520,
2025-11-21T07:38:53.295410+00:00,6.500000,-0.073720,
2025-11-21T07:38:53.300410+00:00,6.505000,-0.077900,
2025-11-21T07:38:53.305410+00:00,6.510000,-0.060800,
2025-11-21T07:38:53.310410+00:00,6.515000,-0.038380,
2025-11-21T07:38:53.315410+00:00,6.520000,-0.030400,
2025-11-21T07:38:53.320410+00:00,6.525000,-0.040280,
2025-11-21T07:38:53.325410+00:00,6.530000,-0.055100,
2025-11-21T07:38:53.330410+00:00,6.535000,-0.054720,
2025-11-21T07:38:53.335410+00:00,6.540000,-0.047880,
2025-11-21T07:38:53.340410+00:00,6.545000,-0.044840,
2025-11-21T07:38:53.345410+00:00,6.550000,-0.043320,
2025-11-21T07:38:53.350410+00:00,6.555000,-0.045980,
2025-11-21T07:38:53.355410+00:00,6.560000,-0.053200,
2025-11-21T07:38:53.360410+00:00,6.565000,-0.059660,
2025-11-21T07:38:53.365410+00:00,6.570000,-0.057000,
2025-11-21T07:38:53.370410+00:00,6.575000,-0.049780,
2025-11-21T07:38:53.375410+00:00,6.580000,-0.038760,
2025-11-21T07:38:53.380410+00:00,6.585000,-0.027360,
2025-11-21T07:38:53.385410+00:00,6.590000,-0.026980,
2025-11-21T07:38:53.390410+00:00,6.595000,-0.038760,
2025-11-21T07:38:53.395410+00:00,6.600000,-0.050540,
2025-11-21T07:38:53.400410+00:00,6.605000,-0.043320,
2025-11-21T07:38:53.405410+00:00,6.610000,-0.026980,
2025-11-21T07:38:53.410410+00:00,6.615000,-0.025080,
2025-11-21T07:38:53.415410+00:00,6.620000,-0.039520,
2025-11-21T07:38:53.420410+00:00,6.625000,-0.048640,
2025-11-21T07:38:53.425410+00:00,6.630000,-0.041420,
2025-11-21T07:38:53.430410+00:00,6.635000,-0.033060,
2025-11-21T07:38:53.435410+00:00,6.640000,-0.035340,
2025-11-21T07:38:53.440410+00:00,6.645000,-0.038380,
2025-11-21T07:38:53.445410+00:00,6.650000,-0.039900,
2025-11-21T07:38:53.450410+00:00,6.655000,-0.045980,
2025-11-21T07:38:53.455410+00:00,6.660000,-0.047120,
2025-11-21T07:38:53.460410+00:00,6.665000,-0.036480,
2025-11-21T07:38:53.465410+00:00,6.670000,-0.026980,
2025-11-21T07:38:53.470410+00:00,6.675000,-0.030020,
2025-11-21T07:38:53.475410+00:00,6.680000,-0.035340,
2025-11-21T07:38:53.480410+00:00,6.685000,-0.035720,
2025-11-21T07:38:53.485410+00:00,6.690000,-0.035340,
2025-11-21T07:38:53.490410+00:00,6.695000,-0.039520,
2025-11-21T07:38:53.495410+00:00,6.700000,-0.048260,
2025-11-21T07:38:53.500410+00:00,6.705000,-0.056240,
2025-11-21T07:38:53.505410+00:00,6.710000,-0.046360,
2025-11-21T07:38:53.510410+00:00,6.715000,-0.017480,
2025-11-21T07:38:53.515410+00:00,6.720000,0.001520,
2025-11-21T07:38:53.520410+00:00,6.725000,-0.015200,
2025-11-21T07:38:53.525410+00:00,6.730000,-0.051680,
2025-11-21T07:38:53.530410+00:00,6.735000,-0.071440,
2025-11-21T07:38:53.535410+00:00,6.740000,-0.052060,
2025-11-21T07:38:53.540410+00:00,6.745000,-0.018240,
2025-11-21T07:38:53.545410+00:00,6.750000,-0.014820,
2025-11-21T07:38:53.550410+00:00,6.755000,-0.037240,
2025-11-21T07:38:53.555410+00:00,6.760000,-0.047120,
2025-11-21T07:38:53.560410+00:00,6.765000,-0.039520,
2025-11-21T07:38:53.565410+00:00,6.770000,-0.036480,
2025-11-21T07:38:53.570410+00:00,6.775000,-0.045600,
2025-11-21T07:38:53.575410+00:00,6.780000,-0.051680,
2025-11-21T07:38:53.580410+00:00,6.785000,-0.049020,
2025-11-21T07:38:53.585410+00:00,6.790000,-0.044080,
2025-11-21T07:38:53.590410+00:00,6.795000,-0.045600,
2025-11-21T07:38:53.595410+00:00,6.800000,-0.053200,
2025-11-21T07:38:53.600410+00:00,6.805000,-0.059280,
2025-11-21T07:38:53.605410+00:00,6.810000,-0.068020,
2025-11-21T07:38:53.610410+00:00,6.815000,-0.076000,
2025-11-21T07:38:53.615410+00:00,6.820000,-0.069160,
2025-11-21T07:38:53.620410+00:00,6.825000,-0.049020,
2025-11-21T07:38:53.625410+00:00,6.830000,-0.035720,
2025-11-21T07:38:53.630410+00:00,6.835000,-0.038380,
2025-11-21T07:38:53.635410+00:00,6.840000,-0.044460,
2025-11-21T07:38:53.640410+00:00,6.845000,-0.039140,
2025-11-21T07:38:53.645410+00:00,6.850000,-0.024320,
2025-11-21T07:38:53.650410+00:00,6.855000,-0.019380,
2025-11-21T07:38:53.655410+00:00,6.860000,-0.031160,
2025-11-21T07:38:53.660410+00:00,6.865000,-0.047500,
2025-11-21T07:38:53.665410+00:00,6.870000,-0.049020,
2025-11-21T07:38:53.670410+00:00,6.875000,-0.035720,
2025-11-21T07:38:53.675410+00:00,6.880000,-0.025840,
2025-11-21T07:38:53.680410+00:00,6.885000,-0.025080,
2025-11-21T07:38:53.685410+00:00,6.890000,-0.028880,
2025-11-21T07:38:53.690410+00:00,6.895000,-0.041040,
2025-11-21T07:38:53.695410+00:00,6.900000,-0.056620,
2025-11-21T07:38:53.700410+00:00,6.905000,-0.058140,
2025-11-21T07:38:53.705410+00:00,6.910000,-0.042560,
2025-11-21T07:38:53.710410+00:00,6.915000,-0.036480,
2025-11-21T07:38:53.715410+00:00,6.920000,-0.047120,
2025-11-21T07:38:53.720410+00:00,6.925000,-0.055100,
2025-11-21T07:38:53.725410+00:00,6.930000,-0.045600,
2025-11-21T07:38:53.730410+00:00,6.935000,-0.030400,
2025-11-21T07:38:53.735410+00:00,6.940000,-0.027360,
2025-11-21T07:38:53.740410+00:00,6.945000,-0.033060,
2025-11-21T07:38:53.745410+00:00,6.950000,-0.033060,
2025-11-21T07:38:53.750410+00:00,6.955000,-0.025460,
2025-11-21T07:38:53.755410+00:00,6.960000,-0.023560,
2025-11-21T07:38:53.760410+00:00,6.965000,-0.032300,
2025-11-21T07:38:53.765410+00:00,6.970000,-0.043700,
2025-11-21T07:38:53.770410+00:00,6.975000,-0.050920,
2025-11-21T07:38:53.775410+00:00,6.980000,-0.049400,
2025-11-21T07:38:53.780410+00:00,6.985000,-0.041420,
2025-11-21T07:38:53.785410+00:00,6.990000,-0.036860,
2025-11-21T07:38:53.790410+00:00,6.995000,-0.041800,
2025-11-21T07:38:53.795410+00:00,7.000000,-0.049780,
2025-11-21T07:38:53.800410+00:00,7.005000,-0.055860,
2025-11-21T07:38:53.805410+00:00,7.010000,-0.056240,
2025-11-21T07:38:53.810410+00:00,7.015000,-0.046360,
2025-11-21T07:38:53.815410+00:00,7.020000,-0.031920,
2025-11-21T07:38:53.820410+00:00,7.025000,-0.030020,
2025-11-21T07:38:53.825410+00:00,7.030000,-0.041800,
2025-11-21T07:38:53.830410+00:00,7.035000,-0.046360,
2025-11-21T07:38:53.835410+00:00,7.040000,-0.037240,
2025-11-21T07:38:53.840410+00:00,7.045000,-0.030780,
2025-11-21T07:38:53.845410+00:00,7.050000,-0.039520,
2025-11-21T07:38:53.850410+00:00,7.055000,-0.059280,
2025-11-21T07:38:53.855410+00:00,7.060000,-0.076000,
2025-11-21T07:38:53.860410+00:00,7.065000,-0.078280,
2025-11-21T07:38:53.865410+00:00,7.070000,-0.069920,
2025-11-21T07:38:53.870410+00:00,7.075000,-0.056620,
2025-11-21T07:38:53.875410+00:00,7.080000,-0.046740,
2025-11-21T07:38:53.880410+00:00,7.085000,-0.043320,
2025-11-21T07:38:53.885410+00:00,7.090000,-0.038760,
2025-11-21T07:38:53.890410+00:00,7.095000,-0.024320,
2025-11-21T07:38:53.895410+00:00,7.100000,-0.012920,
2025-11-21T07:38:53.900410+00:00,7.105000,-0.017860,
2025-11-21T07:38:53.905410+00:00,7.110000,-0.034960,
2025-11-21T07:38:53.910410+00:00,7.115000,-0.038000,
2025-11-21T07:38:53.915410+00:00,7.120000,-0.028880,
2025-11-21T07:38:53.920410+00:00,7.125000,-0.025840,
2025-11-21T07:38:53.925410+00:00,7.130000,-0.039520,
2025-11-21T07:38:53.930410+00:00,7.135000,-0.055480,
2025-11-21T07:38:53.935410+00:00,7.140000,-0.060800,
2025-11-21T07:38:53.940410+00:00,7.145000,-0.059280,
2025-11-21T07:38:53.945410+00:00,7.150000,-0.060040,
2025-11-21T07:38:53.950410+00:00,7.155000,-0.054340,
2025-11-21T07:38:53.955410+00:00,7.160000,-0.039900,
2025-11-21T07:38:53.960410+00:00,7.165000,-0.029640,
2025-11-21T07:38:53.965410+00:00,7.170000,-0.035720,
2025-11-21T07:38:53.970410+00:00,7.175000,-0.048260,
2025-11-21T07:38:53.975410+00:00,7.180000,-0.049780,
2025-11-21T07:38:53.980410+00:00,7.185000,-0.029640,
2025-11-21T07:38:53.985410+00:00,7.190000,-0.012160,
2025-11-21T07:38:53.990410+00:00,7.195000,-0.019760,
2025-11-21T07:38:53.995410+00:00,7.200000,-0.046360,
2025-11-21T07:38:54.000410+00:00,7.205000,-0.054720,
2025-11-21T07:38:54.005410+00:00,7.210000,-0.048640,
2025-11-21T07:38:54.010410+00:00,7.215000,-0.045980,
2025-11-21T07:38:54.015410+00:00,7.220000,-0.055100,
2025-11-21T07:38:54.020410+00:00,7.225000,-0.107160,
2025-11-21T07:38:54.025410+00:00,7.230000,-0.138700,
2025-11-21T07:38:54.030410+00:00,7.235000,0.033060,
2025-11-21T07:38:54.035410+00:00,7.240000,0.123500,
2025-11-21T07:38:54.040410+00:00,7.245000,-0.278920,
2025-11-21T07:38:54.045410+00:00,7.250000,-0.450300,
2025-11-21T07:38:54.050410+00:00,7.255000,0.707560,
2025-11-21T07:38:54.055410+00:00,7.260000,2.609840,
2025-11-21T07:38:54.060410+00:00,7.265000,3.360340,
2025-11-21T07:38:54.065410+00:00,7.270000,2.166000,
2025-11-21T07:38:54.070410+00:00,7.275000,0.216600,
2025-11-21T07:38:54.075410+00:00,7.280000,-0.869060,
2025-11-21T07:38:54.080410+00:00,7.285000,-0.787740,
2025-11-21T07:38:54.085410+00:00,7.290000,-0.506160,
2025-11-21T07:38:54.090410+00:00,7.295000,-0.579880,
2025-11-21T07:38:54.095410+00:00,7.300000,-0.486020,
2025-11-21T07:38:54.100410+00:00,7.305000,-0.010640,
2025-11-21T07:38:54.105410+00:00,7.310000,0.270940,
2025-11-21T07:38:54.110410+00:00,7.315000,0.085880,
2025-11-21T07:38:54.115410+00:00,7.320000,-0.218120,
2025-11-21T07:38:54.120410+00:00,7.325000,-0.369360,
2025-11-21T07:38:54.125410+00:00,7.330000,-0.403180,
2025-11-21T07:38:54.130410+00:00,7.335000,-0.357200,
2025-11-21T07:38:54.135410+00:00,7.340000,-0.224960,
2025-11-21T07:38:54.140410+00:00,7.345000,-0.059280,
2025-11-21T07:38:54.145410+00:00,7.350000,0.021280,
2025-11-21T07:38:54.150410+00:00,7.355000,-0.221160,
2025-11-21T07:38:54.155410+00:00,7.360000,-0.924920,
2025-11-21T07:38:54.160410+00:00,7.365000,-1.708860,
2025-11-21T07:38:54.165410+00:00,7.370000,-1.875680,
2025-11-21T07:38:54.170410+00:00,7.375000,-1.170780,
2025-11-21T07:38:54.175410+00:00,7.380000,-0.443080,
2025-11-21T07:38:54.180410+00:00,7.385000,-1.590300,
2025-11-21T07:38:54.185410+00:00,7.390000,-5.346980,
2025-11-21T07:38:54.190410+00:00,7.395000,-9.604880,
2025-11-21T07:38:54.195410+00:00,7.400000,-12.658180,
2025-11-21T07:38:54.200410+00:00,7.405000,-16.542160,
2025-11-21T07:38:54.205410+00:00,7.410000,-24.017900,
2025-11-21T07:38:54.210410+00:00,7.415000,-33.682440,
2025-11-21T07:38:54.215410+00:00,7.420000,-40.980340,
2025-11-21T07:38:54.220410+00:00,7.425000,-43.425260,
2025-11-21T07:38:54.225410+00:00,7.430000,-42.667160,
2025-11-21T07:38:54.230410+00:00,7.435000,-41.638120,
2025-11-21T07:38:54.235410+00:00,7.440000,-41.271420,
2025-11-21T07:38:54.240410+00:00,7.445000,-40.856460,
2025-11-21T07:38:54.245410+00:00,7.450000,-40.178160,
2025-11-21T07:38:54.250410+00:00,7.455000,-39.533680,
2025-11-21T07:38:54.255410+00:00,7.460000,-38.935940,
2025-11-21T07:38:54.260410+00:00,7.465000,-38.325660,
2025-11-21T07:38:54.265410+00:00,7.470000,-37.729820,
2025-11-21T07:38:54.270410+00:00,7.475000,-37.124480,
2025-11-21T07:38:54.275410+00:00,7.480000,-36.480380,
2025-11-21T07:38:54.280410+00:00,7.485000,-35.765980,
2025-11-21T07:38:54.285410+00:00,7.490000,-34.979000,
2025-11-21T07:38:54.290410+00:00,7.495000,-34.452320,
2025-11-21T07:38:54.295410+00:00,7.500000,-34.107660,
2025-11-21T07:38:54.300410+00:00,7.505000,-32.711160,
2025-11-21T07:38:54.305410+00:00,7.510000,-30.951760,
2025-11-21T07:38:54.310410+00:00,7.515000,-32.147240,
2025-11-21T07:38:54.315410+00:00,7.520000,-34.660180,
2025-11-21T07:38:54.320410+00:00,7.525000,-28.671380,
2025-11-21T07:38:54.325410+00:00,7.530000,-7.180100,
2025-11-21T07:38:54.330410+00:00,7.535000,22.026320,
2025-11-21T07:38:54.335410+00:00,7.540000,42.323640,
2025-11-21T07:38:54.340410+00:00,7.545000,46.434860,
2025-11-21T07:38:54.345410+00:00,7.550000,41.398340,
2025-11-21T07:38:54.350410+00:00,7.555000,35.933180,
2025-11-21T07:38:54.355410+00:00,7.560000,31.224220,
2025-11-21T07:38:54.360410+00:00,7.565000,25.966540,
2025-11-21T07:38:54.365410+00:00,7.570000,22.299920,
2025-11-21T07:38:54.370410+00:00,7.575000,21.876220,
2025-11-21T07:38:54.375410+00:00,7.580000,22.545780,
2025-11-21T07:38:54.380410+00:00,7.585000,21.954880,
2025-11-21T07:38:54.385410+00:00,7.590000,20.554200,
2025-11-21T07:38:54.390410+00:00,7.595000,19.827640,
2025-11-21T07:38:54.395410+00:00,7.600000,19.617880,
2025-11-21T07:38:54.400410+00:00,7.605000,19.196460,
2025-11-21T07:38:54.405410+00:00,7.610000,18.731340,
2025-11-21T07:38:54.410410+00:00,7.615000,18.368060,
2025-11-21T07:38:54.415410+00:00,7.620000,18.014280,
2025-11-21T07:38:54.420410+00:00,7.625000,17.662400,
2025-11-21T07:38:54.425410+00:00,7.630000,17.304440,
2025-11-21T07:38:54.430410+00:00,7.635000,16.932040,
2025-11-21T07:38:54.435410+00:00,7.640000,16.561920,
2025-11-21T07:38:54.440410+00:00,7.645000,16.196360,
2025-11-21T07:38:54.445410+00:00,7.650000,15.825860,
2025-11-21T07:38:54.450410+00:00,7.655000,15.457640,
2025-11-21T07:38:54.455410+00:00,7.660000,15.092460,
2025-11-21T07:38:54.460410+00:00,7.665000,14.698020,
2025-11-21T07:38:54.465410+00:00,7.670000,14.281920,
2025-11-21T07:38:54.470410+00:00,7.675000,13.895080,
2025-11-21T07:38:54.475410+00:00,7.680000,13.574360,
2025-11-21T07:38:54.480410+00:00,7.685000,13.305320,
2025-11-21T07:38:54.485410+00:00,7.690000,13.017280,
2025-11-21T07:38:54.490410+00:00,7.695000,12.626260,
2025-11-21T07:38:54.495410+00:00,7.700000,12.083240,
2025-11-21T07:38:54.500410+00:00,7.705000,11.385180,
2025-11-21T07:38:54.505410+00:00,7.710000,10.578440,
2025-11-21T07:38:54.510410+00:00,7.715000,9.747000,
2025-11-21T07:38:54.515410+00:00,7.720000,8.955080,
2025-11-21T07:38:54.520410+00:00,7.725000,8.180640,
2025-11-21T07:38:54.525410+00:00,7.730000,7.419120,
2025-11-21T07:38:54.530410+00:00,7.735000,6.750320,
2025-11-21T07:38:54.535410+00:00,7.740000,6.135860,
2025-11-21T07:38:54.540410+00:00,7.745000,5.454140,
2025-11-21T07:38:54.545410+00:00,7.750000,4.936960,
2025-11-21T07:38:54.550410+00:00,7.755000,5.066540,
2025-11-21T07:38:54.555410+00:00,7.760000,5.807540,
2025-11-21T07:38:54.560410+00:00,7.765000,6.355120,
2025-11-21T07:38:54.565410+00:00,7.770000,5.952320,
2025-11-21T07:38:54.570410+00:00,7.775000,4.738600,
2025-11-21T07:38:54.575410+00:00,7.780000,3.511200,
2025-11-21T07:38:54.580410+00:00,7.785000,2.793380,
2025-11-21T07:38:54.585410+00:00,7.790000,2.442640,
2025-11-21T07:38:54.590410+00:00,7.795000,2.171320,
2025-11-21T07:38:54.595410+00:00,7.800000,1.958140,
2025-11-21T07:38:54.600410+00:00,7.805000,1.823620,
2025-11-21T07:38:54.605410+00:00,7.810000,1.716080,
2025-11-21T07:38:54.610410+00:00,7.815000,1.630200,
2025-11-21T07:38:54.615410+00:00,7.820000,1.576240,
2025-11-21T07:38:54.620410+00:00,7.825000,1.532920,
2025-11-21T07:38:54.625410+00:00,7.830000,1.491120,
2025-11-21T07:38:54.630410+00:00,7.835000,1.451220,
2025-11-21T07:38:54.635410+00:00,7.840000,1.407900,
2025-11-21T07:38:54.640410+00:00,7.845000,1.363440,
2025-11-21T07:38:54.645410+00:00,7.850000,1.324680,
2025-11-21T07:38:54.650410+00:00,7.855000,1.304160,
2025-11-21T07:38:54.655410+00:00,7.860000,1.300360,
2025-11-21T07:38:54.660410+00:00,7.865000,1.302260,
2025-11-21T07:38:54.665410+00:00,7.870000,1.289720,
2025-11-21T07:38:54.670410+00:00,7.875000,1.261220,
2025-11-21T07:38:54.675410+00:00,7.880000,1.225880,
2025-11-21T07:38:54.680410+00:00,7.885000,1.204600,
2025-11-21T07:38:54.685410+00:00,7.890000,1.192060,
2025-11-21T07:38:54.690410+00:00,7.895000,1.166980,
2025-11-21T07:38:54.695410+00:00,7.900000,1.121000,
2025-11-21T07:38:54.700410+00:00,7.905000,1.084140,
2025-11-21T07:38:54.705410+00:00,7.910000,1.082240,
2025-11-21T07:38:54.710410+00:00,7.915000,1.096680,
2025-11-21T07:38:54.715410+00:00,7.920000,1.087560,
2025-11-21T07:38:54.720410+00:00,7.925000,1.057920,
2025-11-21T07:38:54.725410+00:00,7.930000,1.029800,
2025-11-21T07:38:54.730410+00:00,7.935000,1.012700,
2025-11-21T07:38:54.735410+00:00,7.940000,0.991040,
2025-11-21T07:38:54.740410+00:00,7.945000,0.963680,
2025-11-21T07:38:54.745410+00:00,7.950000,0.945060,
2025-11-21T07:38:54.750410+00:00,7.955000,0.940120,
2025-11-21T07:38:54.755410+00:00,7.960000,0.927200,
2025-11-21T07:38:54.760410+00:00,7.965000,0.892620,
2025-11-21T07:38:54.765410+00:00,7.970000,0.858040,
2025-11-21T07:38:54.770410+00:00,7.975000,0.842840,
2025-11-21T07:38:54.775410+00:00,7.980000,0.837140,
2025-11-21T07:38:54.780410+00:00,7.985000,0.829160,
2025-11-21T07:38:54.785410+00:00,7.990000,0.815860,
2025-11-21T07:38:54.790410+00:00,7.995000,0.806360,
2025-11-21T07:38:54.795410+00:00,8.000000,0.799140,
2025-11-21T07:38:54.800410+00:00,8.005000,0.793440,
2025-11-21T07:38:54.805410+00:00,8.010000,0.782800,
2025-11-21T07:38:54.810410+00:00,8.015000,0.771020,
2025-11-21T07:38:54.815410+00:00,8.020000,0.758860,
2025-11-21T07:38:54.820410+00:00,8.025000,0.739860,
2025-11-21T07:38:54.825410+00:00,8.030000,0.720100,
2025-11-21T07:38:54.830410+00:00,8.035000,0.707560,
2025-11-21T07:38:54.835410+00:00,8.040000,0.695400,
2025-11-21T07:38:54.840410+00:00,8.045000,0.676020,
2025-11-21T07:38:54.845410+00:00,8.050000,0.657780,
2025-11-21T07:38:54.850410+00:00,8.055000,0.647900,
2025-11-21T07:38:54.855410+00:00,8.060000,0.647520,
2025-11-21T07:38:54.860410+00:00,8.065000,0.643720,
2025-11-21T07:38:54.865410+00:00,8.070000,0.626620,
2025-11-21T07:38:54.870410+00:00,8.075000,0.604200,
2025-11-21T07:38:54.875410+00:00,8.080000,0.592420,
2025-11-21T07:38:54.880410+00:00,8.085000,0.595460,
2025-11-21T07:38:54.885410+00:00,8.090000,0.602300,
2025-11-21T07:38:54.890410+00:00,8.095000,0.601160,
2025-11-21T07:38:54.895410+00:00,8.100000,0.592040,
2025-11-21T07:38:54.900410+00:00,8.105000,0.576840,
2025-11-21T07:38:54.905410+00:00,8.110000,0.560120,
2025-11-21T07:38:54.910410+00:00,8.115000,0.543400,
2025-11-21T07:38:54.915410+00:00,8.120000,0.525160,
2025-11-21T07:38:54.920410+00:00,8.125000,0.513000,
2025-11-21T07:38:54.925410+00:00,8.130000,0.503880,
2025-11-21T07:38:54.930410+00:00,8.135000,0.498560,
2025-11-21T07:38:54.935410+00:00,8.140000,0.493240,
2025-11-21T07:38:54.940410+00:00,8.145000,0.489820,
2025-11-21T07:38:54.945410+00:00,8.150000,0.489820,
2025-11-21T07:38:54.950410+00:00,8.155000,0.480320,
2025-11-21T07:38:54.955410+00:00,8.160000,0.461700,
2025-11-21T07:38:54.960410+00:00,8.165000,0.443840,
2025-11-21T07:38:54.965410+00:00,8.170000,0.435100,
2025-11-21T07:38:54.970410+00:00,8.175000,0.428640,
2025-11-21T07:38:54.975410+00:00,8.180000,0.421040,
2025-11-21T07:38:54.980410+00:00,8.185000,0.417240,
2025-11-21T07:38:54.985410+00:00,8.190000,0.419520,
2025-11-21T07:38:54.990410+00:00,8.195000,0.415340,
2025-11-21T07:38:54.995410+00:00,8.200000,0.398240,
2025-11-21T07:38:55.000410+00:00,8.205000,0.380380,
2025-11-21T07:38:55.005410+00:00,8.210000,0.376960,
2025-11-21T07:38:55.010410+00:00,8.215000,0.379240,
2025-11-21T07:38:55.015410+00:00,8.220000,0.370880,
2025-11-21T07:38:55.020410+00:00,8.225000,0.349220,
2025-11-21T07:38:55.025410+00:00,8.230000,0.333640,
2025-11-21T07:38:55.030410+00:00,8.235000,0.322620,
2025-11-21T07:38:55.035410+00:00,8.240000,0.313500,
2025-11-21T07:38:55.040410+00:00,8.245000,0.311600,
2025-11-21T07:38:55.045410+00:00,8.250000,0.323380,
2025-11-21T07:38:55.050410+00:00,8.255000,0.335160,
2025-11-21T07:38:55.055410+00:00,8.260000,0.334020,
2025-11-21T07:38:55.060410+00:00,8.265000,0.327180,
2025-11-21T07:38:55.065410+00:00,8.270000,0.321100,
2025-11-21T07:38:55.070410+00:00,8.275000,0.310460,
2025-11-21T07:38:55.075410+00:00,8.280000,0.290700,
2025-11-21T07:38:55.080410+00:00,8.285000,0.280060,
2025-11-21T07:38:55.085410+00:00,8.290000,0.289940,
2025-11-21T07:38:55.090410+00:00,8.295000,0.303620,
2025-11-21T07:38:55.095410+00:00,8.300000,0.288040,
2025-11-21T07:38:55.100410+00:00,8.305000,0.264860,
2025-11-21T07:38:55.105410+00:00,8.310000,0.261820,
2025-11-21T07:38:55.110410+00:00,8.315000,0.273220,
2025-11-21T07:38:55.115410+00:00,8.320000,0.269040,
2025-11-21T07:38:55.120410+00:00,8.325000,0.250800,
2025-11-21T07:38:55.125410+00:00,8.330000,0.237880,
2025-11-21T07:38:55.130410+00:00,8.335000,0.234460,
2025-11-21T07:38:55.135410+00:00,8.340000,0.230280,
2025-11-21T07:38:55.140410+00:00,8.345000,0.219640,
2025-11-21T07:38:55.145410+00:00,8.350000,0.219640,
2025-11-21T07:38:55.150410+00:00,8.355000,0.231040,
2025-11-21T07:38:55.155410+00:00,8.360000,0.229520,
2025-11-21T07:38:55.160410+00:00,8.365000,0.213180,
2025-11-21T07:38:55.165410+00:00,8.370000,0.200260,
2025-11-21T07:38:55.170410+00:00,8.375000,0.205580,
2025-11-21T07:38:55.175410+00:00,8.380000,0.210140,
2025-11-21T07:38:55.180410+00:00,8.385000,0.200260,
2025-11-21T07:38:55.185410+00:00,8.390000,0.188480,
2025-11-21T07:38:55.190410+00:00,8.395000,0.188100,
2025-11-21T07:38:55.195410+00:00,8.400000,0.191900,
2025-11-21T07:38:55.200410+00:00,8.405000,0.187720,
2025-11-21T07:38:55.205410+00:00,8.410000,0.168340,
2025-11-21T07:38:55.210410+00:00,8.415000,0.155800,
2025-11-21T07:38:55.215410+00:00,8.420000,0.164920,
2025-11-21T07:38:55.220410+00:00,8.425000,0.184680,
2025-11-21T07:38:55.225410+00:00,8.430000,0.184300,
2025-11-21T07:38:55.230410+00:00,8.435000,0.167580,
2025-11-21T07:38:55.235410+00:00,8.440000,0.167200,
2025-11-21T07:38:55.240410+00:00,8.445000,0.188860,
2025-11-21T07:38:55.245410+00:00,8.450000,0.205200,
2025-11-21T07:38:55.250410+00:00,8.455000,0.185440,
2025-11-21T07:38:55.255410+00:00,8.460000,0.140220,
2025-11-21T07:38:55.260410+00:00,8.465000,0.110580,
2025-11-21T07:38:55.265410+00:00,8.470000,0.111340,
2025-11-21T07:38:55.270410+00:00,8.475000,0.123500,
2025-11-21T07:38:55.275410+00:00,8.480000,0.131480,
2025-11-21T07:38:55.280410+00:00,8.485000,0.131860,
2025-11-21T07:38:55.285410+00:00,8.490000,0.120080,
2025-11-21T07:38:55.290410+00:00,8.495000,0.102980,
2025-11-21T07:38:55.295410+00:00,8.500000,0.098040,
2025-11-21T07:38:55.300410+00:00,8.505000,0.113240,
2025-11-21T07:38:55.305410+00:00,8.510000,0.129960,
2025-11-21T07:38:55.310410+00:00,8.515000,0.120840,
2025-11-21T07:38:55.315410+00:00,8.520000,0.099560,
2025-11-21T07:38:55.320410+00:00,8.525000,0.095760,
2025-11-21T07:38:55.325410+00:00,8.530000,0.112860,
2025-11-21T07:38:55.330410+00:00,8.535000,0.128820,
2025-11-21T07:38:55.335410+00:00,8.540000,0.126540,
2025-11-21T07:38:55.340410+00:00,8.545000,0.112860,
2025-11-21T07:38:55.345410+00:00,8.550000,0.102600,
2025-11-21T07:38:55.350410+00:00,8.555000,0.097660,
2025-11-21T07:38:55.355410+00:00,8.560000,0.093100,
2025-11-21T07:38:55.360410+00:00,8.565000,0.091580,
2025-11-21T07:38:55.365410+00:00,8.570000,0.095000,
2025-11-21T07:38:55.370410+00:00,8.575000,0.096520,
2025-11-21T07:38:55.375410+00:00,8.580000,0.087400,
2025-11-21T07:38:55.380410+00:00,8.585000,0.069540,
2025-11-21T07:38:55.385410+00:00,8.590000,0.060040,
2025-11-21T07:38:55.390410+00:00,8.595000,0.071060,
2025-11-21T07:38:55.395410+00:00,8.600000,0.092340,
2025-11-21T07:38:55.400410+00:00,8.605000,0.110580,
2025-11-21T07:38:55.405410+00:00,8.610000,0.115520,
2025-11-21T07:38:55.410410+00:00,8.615000,0.103740,
2025-11-21T07:38:55.415410+00:00,8.620000,0.079800,
2025-11-21T07:38:55.420410+00:00,8.625000,0.061940,
2025-11-21T07:38:55.425410+00:00,8.630000,0.054720,
2025-11-21T07:38:55.430410+00:00,8.635000,0.049780,
2025-11-21T07:38:55.435410+00:00,8.640000,0.042180,
2025-11-21T07:38:55.440410+00:00,8.645000,0.037620,
2025-11-21T07:38:55.445410+00:00,8.650000,0.042180,
2025-11-21T07:38:55.450410+00:00,8.655000,0.047880,
2025-11-21T07:38:55.455410+00:00,8.660000,0.042560,
2025-11-21T07:38:55.460410+00:00,8.665000,0.034580,
2025-11-21T07:38:55.465410+00:00,8.670000,0.045220,
2025-11-21T07:38:55.470410+00:00,8.675000,0.062320,
2025-11-21T07:38:55.475410+00:00,8.680000,0.055100,
2025-11-21T07:38:55.480410+00:00,8.685000,0.024320,
2025-11-21T07:38:55.485410+00:00,8.690000,0.009880,
2025-11-21T07:38:55.490410+00:00,8.695000,0.033820,
2025-11-21T07:38:55.495410+00:00,8.700000,0.069160,
2025-11-21T07:38:55.500410+00:00,8.705000,0.079040,
2025-11-21T07:38:55.505410+00:00,8.710000,0.057760,
2025-11-21T07:38:55.510410+00:00,8.715000,0.035340,
2025-11-21T07:38:55.515410+00:00,8.720000,0.032300,
2025-11-21T07:38:55.520410+00:00,8.725000,0.043700,
2025-11-21T07:38:55.525410+00:00,8.730000,0.055480,
2025-11-21T07:38:55.530410+00:00,8.735000,0.063080,
2025-11-21T07:38:55.535410+00:00,8.740000,0.053200,
2025-11-21T07:38:55.540410+00:00,8.745000,0.023180,
2025-11-21T07:38:55.545410+00:00,8.750000,-0.000380,
2025-11-21T07:38:55.550410+00:00,8.755000,0.000000,
2025-11-21T07:38:55.555410+00:00,8.760000,0.012160,
2025-11-21T07:38:55.560410+00:00,8.765000,0.018240,
2025-11-21T07:38:55.565410+00:00,8.770000,0.020140,
2025-11-21T07:38:55.570410+00:00,8.775000,0.025840,
2025-11-21T07:38:55.575410+00:00,8.780000,0.033440,
2025-11-21T07:38:55.580410+00:00,8.785000,0.026220,
2025-11-21T07:38:55.585410+00:00,8.790000,0.009120,
2025-11-21T07:38:55.590410+00:00,8.795000,0.001140,
2025-11-21T07:38:55.595410+00:00,8.800000,0.008360,
2025-11-21T07:38:55.600410+00:00,8.805000,0.017480,
2025-11-21T07:38:55.605410+00:00,8.810000,0.019380,
2025-11-21T07:38:55.610410+00:00,8.815000,0.011400,
2025-11-21T07:38:55.615410+00:00,8.820000,-0.002280,
2025-11-21T07:38:55.620410+00:00,8.825000,-0.014440,
2025-11-21T07:38:55.625410+00:00,8.830000,-0.015960,
2025-11-21T07:38:55.630410+00:00,8.835000,-0.008360,
2025-11-21T07:38:55.635410+00:00,8.840000,0.001140,
2025-11-21T07:38:55.640410+00:00,8.845000,0.000380,
2025-11-21T07:38:55.645410+00:00,8.850000,-0.002280,
2025-11-21T07:38:55.650410+00:00,8.855000,0.004180,
2025-11-21T07:38:55.655410+00:00,8.860000,0.016720,
2025-11-21T07:38:55.660410+00:00,8.865000,0.017860,
2025-11-21T07:38:55.665410+00:00,8.870000,0.000000,
2025-11-21T07:38:55.670410+00:00,8.875000,-0.019380,
2025-11-21T07:38:55.675410+00:00,8.880000,-0.015200,
2025-11-21T07:38:55.680410+00:00,8.885000,0.006840,
2025-11-21T07:38:55.685410+00:00,8.890000,0.019760,
2025-11-21T07:38:55.690410+00:00,8.895000,0.009500,
2025-11-21T07:38:55.695410+00:00,8.900000,-0.011020,
2025-11-21T07:38:55.700410+00:00,8.905000,-0.022040,
2025-11-21T07:38:55.705410+00:00,8.910000,-0.016340,
2025-11-21T07:38:55.710410+00:00,8.915000,-0.004180,
2025-11-21T07:38:55.715410+00:00,8.920000,0.004940,
2025-11-21T07:38:55.720410+00:00,8.925000,0.004940,
2025-11-21T07:38:55.725410+00:00,8.930000,-0.002660,
2025-11-21T07:38:55.730410+00:00,8.935000,-0.013680,
2025-11-21T07:38:55.735410+00:00,8.940000,-0.017480,
2025-11-21T07:38:55.740410+00:00,8.945000,-0.012920,
2025-11-21T07:38:55.745410+00:00,8.950000,-0.004180,
2025-11-21T07:38:55.750410+00:00,8.955000,0.000000,
2025-11-21T07:38:55.755410+00:00,8.960000,-0.003420,
2025-11-21T07:38:55.760410+00:00,8.965000,-0.008360,
2025-11-21T07:38:55.765410+00:00,8.970000,-0.000380,
2025-11-21T07:38:55.770410+00:00,8.975000,0.015960,
2025-11-21T07:38:55.775410+00:00,8.980000,0.022800,
2025-11-21T07:38:55.780410+00:00,8.985000,0.011400,
2025-11-21T07:38:55.785410+00:00,8.990000,-0.006080,
2025-11-21T07:38:55.790410+00:00,8.995000,-0.012160,
2025-11-21T07:38:55.795410+00:00,9.000000,-0.005700,
2025-11-21T07:38:55.800410+00:00,9.005000,0.006080,
2025-11-21T07:38:55.805410+00:00,9.010000,0.007980,
2025-11-21T07:38:55.810410+00:00,9.015000,-0.002280,
2025-11-21T07:38:55.815410+00:00,9.020000,-0.017480,
2025-11-21T07:38:55.820410+00:00,9.025000,-0.026600,
2025-11-21T07:38:55.825410+00:00,9.030000,-0.015580,
2025-11-21T07:38:55.830410+00:00,9.035000,0.006840,
2025-11-21T07:38:55.835410+00:00,9.040000,0.012540,
2025-11-21T07:38:55.840410+00:00,9.045000,-0.006460,
2025-11-21T07:38:55.845410+00:00,9.050000,-0.026220,
2025-11-21T07:38:55.850410+00:00,9.055000,-0.030400,
2025-11-21T07:38:55.855410+00:00,9.060000,-0.022420,
2025-11-21T07:38:55.860410+00:00,9.065000,-0.014060,
2025-11-21T07:38:55.865410+00:00,9.070000,-0.008360,
2025-11-21T07:38:55.870410+00:00,9.075000,-0.007600,
2025-11-21T07:38:55.875410+00:00,9.080000,-0.006840,
2025-11-21T07:38:55.880410+00:00,9.085000,0.002280,
2025-11-21T07:38:55.885410+00:00,9.090000,0.016340,
2025-11-21T07:38:55.890410+00:00,9.095000,0.015960,
2025-11-21T07:38:55.895410+00:00,9.100000,-0.007220,
2025-11-21T07:38:55.900410+00:00,9.105000,-0.039140,
2025-11-21T07:38:55.905410+00:00,9.110000,-0.052820,
2025-11-21T07:38:55.910410+00:00,9.115000,-0.038760,
2025-11-21T07:38:55.915410+00:00,9.120000,-0.015200,
2025-11-21T07:38:55.920410+00:00,9.125000,-0.000760,
2025-11-21T07:38:55.925410+00:00,9.130000,0.001900,
2025-11-21T07:38:55.930410+00:00,9.135000,-0.000760,
2025-11-21T07:38:55.935410+00:00,9.140000,-0.005700,
2025-11-21T07:38:55.940410+00:00,9.145000,0.000000,
2025-11-21T07:38:55.945410+00:00,9.150000,0.011780,
2025-11-21T07:38:55.950410+00:00,9.155000,0.004940,
2025-11-21T07:38:55.955410+00:00,9.160000,-0.025460,
2025-11-21T07:38:55.960410+00:00,9.165000,-0.055480,
2025-11-21T07:38:55.965410+00:00,9.170000,-0.053200,
2025-11-21T07:38:55.970410+00:00,9.175000,-0.025080,
2025-11-21T07:38:55.975410+00:00,9.180000,-0.004940,
2025-11-21T07:38:55.980410+00:00,9.185000,-0.009500,
2025-11-21T07:38:55.985410+00:00,9.190000,-0.019380,
2025-11-21T07:38:55.990410+00:00,9.195000,-0.019380,
2025-11-21T07:38:55.995410+00:00,9.200000,-0.015200,
2025-11-21T07:38:56.000410+00:00,9.205000,-0.022800,
2025-11-21T07:38:56.005410+00:00,9.210000,-0.037240,
2025-11-21T07:38:56.010410+00:00,9.215000,-0.046360,
2025-11-21T07:38:56.015410+00:00,9.220000,-0.044840,
2025-11-21T07:38:56.020410+00:00,9.225000,-0.040280,
2025-11-21T07:38:56.025410+00:00,9.230000,-0.035720,
2025-11-21T07:38:56.030410+00:00,9.235000,-0.031160,
2025-11-21T07:38:56.035410+00:00,9.240000,-0.026600,
2025-11-21T07:38:56.040410+00:00,9.245000,-0.022040,
2025-11-21T07:38:56.045410+00:00,9.250000,-0.019380,
2025-11-21T07:38:56.050410+00:00,9.255000,-0.023560,
2025-11-21T07:38:56.055410+00:00,9.260000,-0.028880,
2025-11-21T07:38:56.060410+00:00,9.265000,-0.025840,
2025-11-21T07:38:56.065410+00:00,9.270000,-0.018620,
2025-11-21T07:38:56.070410+00:00,9.275000,-0.022040,
2025-11-21T07:38:56.075410+00:00,9.280000,-0.038000,
2025-11-21T07:38:56.080410+00:00,9.285000,-0.049020,
2025-11-21T07:38:56.085410+00:00,9.290000,-0.042180,
2025-11-21T07:38:56.090410+00:00,9.295000,-0.026220,
2025-11-21T07:38:56.095410+00:00,9.300000,-0.012920,
2025-11-21T07:38:56.100410+00:00,9.305000,-0.013680,
2025-11-21T07:38:56.105410+00:00,9.310000,-0.019760,
2025-11-21T07:38:56.110410+00:00,9.315000,-0.022040,
2025-11-21T07:38:56.115410+00:00,9.320000,-0.025460,
2025-11-21T07:38:56.120410+00:00,9.325000,-0.032300,
2025-11-21T07:38:56.125410+00:00,9.330000,-0.036100,
2025-11-21T07:38:56.130410+00:00,9.335000,-0.030400,
2025-11-21T07:38:56.135410+00:00,9.340000,-0.013680,
2025-11-21T07:38:56.140410+00:00,9.345000,0.001140,
2025-11-21T07:38:56.145410+00:00,9.350000,-0.003800,
2025-11-21T07:38:56.150410+00:00,9.355000,-0.025840,
2025-11-21T07:38:56.155410+00:00,9.360000,-0.042560,
2025-11-21T07:38:56.160410+00:00,9.365000,-0.039900,
2025-11-21T07:38:56.165410+00:00,9.370000,-0.023560,
2025-11-21T07:38:56.170410+00:00,9.375000,-0.007220,
2025-11-21T07:38:56.175410+00:00,9.380000,-0.001520,
2025-11-21T07:38:56.180410+00:00,9.385000,-0.006460,
2025-11-21T07:38:56.185410+00:00,9.390000,-0.019380,
2025-11-21T07:38:56.190410+00:00,9.395000,-0.036480,
2025-11-21T07:38:56.195410+00:00,9.400000,-0.044080,
2025-11-21T07:38:56.200410+00:00,9.405000,-0.041800,
2025-11-21T07:38:56.205410+00:00,9.410000,-0.034960,
2025-11-21T07:38:56.210410+00:00,9.415000,-0.028500,
2025-11-21T07:38:56.215410+00:00,9.420000,-0.027740,
2025-11-21T07:38:56.220410+00:00,9.425000,-0.037620,
2025-11-21T07:38:56.225410+00:00,9.430000,-0.040280,
2025-11-21T07:38:56.230410+00:00,9.435000,-0.034580,
2025-11-21T07:38:56.235410+00:00,9.440000,-0.027360,
2025-11-21T07:38:56.240410+00:00,9.445000,-0.027740,
2025-11-21T07:38:56.245410+00:00,9.450000,-0.031920,
2025-11-21T07:38:56.250410+00:00,9.455000,-0.030400,
2025-11-21T07:38:56.255410+00:00,9.460000,-0.018240,
2025-11-21T07:38:56.260410+00:00,9.465000,-0.012160,
2025-11-21T07:38:56.265410+00:00,9.470000,-0.028120,
2025-11-21T07:38:56.270410+00:00,9.475000,-0.050160,
2025-11-21T07:38:56.275410+00:00,9.480000,-0.057760,
2025-11-21T07:38:56.280410+00:00,9.485000,-0.052060,
2025-11-21T07:38:56.285410+00:00,9.490000,-0.038000,
2025-11-21T07:38:56.290410+00:00,9.495000,-0.022420,
2025-11-21T07:38:56.295410+00:00,9.500000,-0.018620,
2025-11-21T07:38:56.300410+00:00,9.505000,-0.029640,
2025-11-21T07:38:56.305410+00:00,9.510000,-0.044840,
2025-11-21T07:38:56.310410+00:00,9.515000,-0.045980,
2025-11-21T07:38:56.315410+00:00,9.520000,-0.029260,
2025-11-21T07:38:56.320410+00:00,9.525000,-0.019380,
2025-11-21T07:38:56.325410+00:00,9.530000,-0.029640,
2025-11-21T07:38:56.330410+00:00,9.535000,-0.034580,
2025-11-21T07:38:56.335410+00:00,9.540000,-0.024320,
2025-11-21T07:38:56.340410+00:00,9.545000,-0.017860,
2025-11-21T07:38:56.345410+00:00,9.550000,-0.029640,
2025-11-21T07:38:56.350410+00:00,9.555000,-0.038380,
2025-11-21T07:38:56.355410+00:00,9.560000,-0.028500,
2025-11-21T07:38:56.360410+00:00,9.565000,-0.017100,
2025-11-21T07:38:56.365410+00:00,9.570000,-0.020140,
2025-11-21T07:38:56.370410+00:00,9.575000,-0.024700,
2025-11-21T07:38:56.375410+00:00,9.580000,-0.011400,
2025-11-21T07:38:56.380410+00:00,9.585000,0.000380,
2025-11-21T07:38:56.385410+00:00,9.590000,-0.019760,
2025-11-21T07:38:56.390410+00:00,9.595000,-0.061560,
2025-11-21T07:38:56.395410+00:00,9.600000,-0.081320,
2025-11-21T07:38:56.400410+00:00,9.605000,-0.057380,
2025-11-21T07:38:56.405410+00:00,9.610000,-0.019380,
2025-11-21T07:38:56.410410+00:00,9.615000,-0.012160,
2025-11-21T07:38:56.415410+00:00,9.620000,-0.028880,
2025-11-21T07:38:56.420410+00:00,9.625000,-0.034960,
2025-11-21T07:38:56.425410+00:00,9.630000,-0.029260,
2025-11-21T07:38:56.430410+00:00,9.635000,-0.039140,
2025-11-21T07:38:56.435410+00:00,9.640000,-0.060040,
2025-11-21T07:38:56.440410+00:00,9.645000,-0.064600,
2025-11-21T07:38:56.445410+00:00,9.650000,-0.042560,
2025-11-21T07:38:56.450410+00:00,9.655000,-0.023940,
2025-11-21T07:38:56.455410+00:00,9.660000,-0.025840,
2025-11-21T07:38:56.460410+00:00,9.665000,-0.028120,
2025-11-21T07:38:56.465410+00:00,9.670000,-0.021280,
2025-11-21T07:38:56.470410+00:00,9.675000,-0.025840,
2025-11-21T07:38:56.475410+00:00,9.680000,-0.045220,
2025-11-21T07:38:56.480410+00:00,9.685000,-0.051680,
2025-11-21T07:38:56.485410+00:00,9.690000,-0.039140,
2025-11-21T07:38:56.490410+00:00,9.695000,-0.024320,
2025-11-21T07:38:56.495410+00:00,9.700000,-0.017480,
2025-11-21T07:38:56.500410+00:00,9.705000,-0.016720,
2025-11-21T07:38:56.505410+00:00,9.710000,-0.018620,
2025-11-21T07:38:56.510410+00:00,9.715000,-0.033820,
2025-11-21T07:38:56.515410+00:00,9.720000,-0.052820,
2025-11-21T07:38:56.520410+00:00,9.725000,-0.054340,
2025-11-21T07:38:56.525410+00:00,9.730000,-0.040280,
2025-11-21T07:38:56.530410+00:00,9.735000,-0.029260,
2025-11-21T07:38:56.535410+00:00,9.740000,-0.032300,
2025-11-21T07:38:56.540410+00:00,9.745000,-0.045600,
2025-11-21T07:38:56.545410+00:00,9.750000,-0.057380,
2025-11-21T07:38:56.550410+00:00,9.755000,-0.057760,
2025-11-21T07:38:56.555410+00:00,9.760000,-0.049400,
2025-11-21T07:38:56.560410+00:00,9.765000,-0.035720,
2025-11-21T07:38:56.565410+00:00,9.770000,-0.017480,
2025-11-21T07:38:56.570410+00:00,9.775000,-0.002280,
2025-11-21T07:38:56.575410+00:00,9.780000,0.000000,
2025-11-21T07:38:56.580410+00:00,9.785000,-0.002660,
2025-11-21T07:38:56.585410+00:00,9.790000,-0.007600,
2025-11-21T07:38:56.590410+00:00,9.795000,-0.020900,
2025-11-21T07:38:56.595410+00:00,9.800000,-0.039900,
2025-11-21T07:38:56.600410+00:00,9.805000,-0.048260,
2025-11-21T07:38:56.605410+00:00,9.810000,-0.039140,
2025-11-21T07:38:56.610410+00:00,9.815000,-0.026600,
2025-11-21T07:38:56.615410+00:00,9.820000,-0.033060,
2025-11-21T07:38:56.620410+00:00,9.825000,-0.056620,
2025-11-21T07:38:56.625410+00:00,9.830000,-0.068780,
2025-11-21T07:38:56.630410+00:00,9.835000,-0.049400,
2025-11-21T07:38:56.635410+00:00,9.840000,-0.026220,
2025-11-21T07:38:56.640410+00:00,9.845000,-0.025080,
2025-11-21T07:38:56.645410+00:00,9.850000,-0.036100,
2025-11-21T07:38:56.650410+00:00,9.855000,-0.039140,
2025-11-21T07:38:56.655410+00:00,9.860000,-0.029640,
2025-11-21T07:38:56.660410+00:00,9.865000,-0.022800,
2025-11-21T07:38:56.665410+00:00,9.870000,-0.026220,
2025-11-21T07:38:56.670410+00:00,9.875000,-0.027740,
2025-11-21T07:38:56.675410+00:00,9.880000,-0.020900,
2025-11-21T07:38:56.680410+00:00,9.885000,-0.014060,
2025-11-21T07:38:56.685410+00:00,9.890000,-0.016340,
2025-11-21T07:38:56.690410+00:00,9.895000,-0.018240,
2025-11-21T07:38:56.695410+00:00,9.900000,-0.017480,
2025-11-21T07:38:56.700410+00:00,9.905000,-0.023180,
2025-11-21T07:38:56.705410+00:00,9.910000,-0.041040,
2025-11-21T07:38:56.710410+00:00,9.915000,-0.059280,
2025-11-21T07:38:56.715410+00:00,9.920000,-0.062320,
2025-11-21T07:38:56.720410+00:00,9.925000,-0.048640,
2025-11-21T07:38:56.725410+00:00,9.930000,-0.035340,
2025-11-21T07:38:56.730410+00:00,9.935000,-0.032300,
2025-11-21T07:38:56.735410+00:00,9.940000,-0.031920,
2025-11-21T07:38:56.740410+00:00,9.945000,-0.029640,
2025-11-21T07:38:56.745410+00:00,9.950000,-0.025460,
2025-11-21T07:38:56.750410+00:00,9.955000,-0.019380,
2025-11-21T07:38:56.755410+00:00,9.960000,-0.023180,
2025-11-21T07:38:56.760410+00:00,9.965000,-0.035340,
2025-11-21T07:38:56.765410+00:00,9.970000,-0.046360,
2025-11-21T07:38:56.770410+00:00,9.975000,-0.050540,
2025-11-21T07:38:56.775410+00:00,9.980000,-0.050540,
2025-11-21T07:38:56.780410+00:00,9.985000,-0.058520,
2025-11-21T07:38:56.785410+00:00,9.990000,-0.067640,
2025-11-21T07:38:56.790410+00:00,9.995000,-0.067260,
2025-11-21T07:38:56.795410+00:00,10.000000,-0.046360,
2025-11-21T07:38:56.800410+00:00,10.005000,-0.020900,
2025-11-21T07:38:56.805410+00:00,10.010000,-0.011400,
2025-11-21T07:38:56.810410+00:00,10.015000,-0.017860,
2025-11-21T07:38:56.815410+00:00,10.020000,-0.030780,
2025-11-21T07:38:56.820410+00:00,10.025000,-0.039520,
2025-11-21T07:38:56.825410+00:00,10.030000,-0.033820,
2025-11-21T07:38:56.830410+00:00,10.035000,-0.015580,
2025-11-21T07:38:56.835410+00:00,10.040000,-0.007600,
2025-11-21T07:38:56.840410+00:00,10.045000,-0.026980,
2025-11-21T07:38:56.845410+00:00,10.050000,-0.061560,
2025-11-21T07:38:56.850410+00:00,10.055000,-0.077900,
2025-11-21T07:38:56.855410+00:00,10.060000,-0.057760,
2025-11-21T07:38:56.860410+00:00,10.065000,-0.022420,
2025-11-21T07:38:56.865410+00:00,10.070000,-0.002280,
2025-11-21T07:38:56.870410+00:00,10.075000,-0.008360,
2025-11-21T07:38:56.875410+00:00,10.080000,-0.026220,
2025-11-21T07:38:56.880410+00:00,10.085000,-0.038760,
2025-11-21T07:38:56.885410+00:00,10.090000,-0.039140,
2025-11-21T07:38:56.890410+00:00,10.095000,-0.029260,
2025-11-21T07:38:56.895410+00:00,10.100000,-0.022040,
2025-11-21T07:38:56.900410+00:00,10.105000,-0.028120,
2025-11-21T07:38:56.905410+00:00,10.110000,-0.041800,
2025-11-21T07:38:56.910410+00:00,10.115000,-0.046740,
2025-11-21T07:38:56.915410+00:00,10.120000,-0.037240,
2025-11-21T07:38:56.920410+00:00,10.125000,-0.022800,
2025-11-21T07:38:56.925410+00:00,10.130000,-0.014820,
2025-11-21T07:38:56.930410+00:00,10.135000,-0.014060,
2025-11-21T07:38:56.935410+00:00,10.140000,-0.016720,
2025-11-21T07:38:56.940410+00:00,10.145000,-0.030780,
2025-11-21T07:38:56.945410+00:00,10.150000,-0.053580,
2025-11-21T07:38:56.950410+00:00,10.155000,-0.069920,
2025-11-21T07:38:56.955410+00:00,10.160000,-0.069920,
2025-11-21T07:38:56.960410+00:00,10.165000,-0.053200,
2025-11-21T07:38:56.965410+00:00,10.170000,-0.038760,
2025-11-21T07:38:56.970410+00:00,10.175000,-0.043700,
2025-11-21T07:38:56.975410+00:00,10.180000,-0.063460,
2025-11-21T07:38:56.980410+00:00,10.185000,-0.077900,
2025-11-21T07:38:56.985410+00:00,10.190000,-0.069540,
2025-11-21T07:38:56.990410+00:00,10.195000,-0.045600,
2025-11-21T07:38:56.995410+00:00,10.200000,-0.026980,
2025-11-21T07:38:57.000410+00:00,10.205000,-0.021280,
2025-11-21T07:38:57.005410+00:00,10.210000,-0.020520,
2025-11-21T07:38:57.010410+00:00,10.215000,-0.010640,
2025-11-21T07:38:57.015410+00:00,10.220000,-0.008740,
2025-11-21T07:38:57.020410+00:00,10.225000,-0.028500,
2025-11-21T07:38:57.025410+00:00,10.230000,-0.049780,
2025-11-21T07:38:57.030410+00:00,10.235000,-0.050920,
2025-11-21T07:38:57.035410+00:00,10.240000,-0.030780,
2025-11-21T07:38:57.040410+00:00,10.245000,-0.012540,
2025-11-21T07:38:57.045410+00:00,10.250000,-0.015580,
2025-11-21T07:38:57.050410+00:00,10.255000,-0.028880,
2025-11-21T07:38:57.055410+00:00,10.260000,-0.038380,
2025-11-21T07:38:57.060410+00:00,10.265000,-0.036100,
2025-11-21T07:38:57.065410+00:00,10.270000,-0.028880,
2025-11-21T07:38:57.070410+00:00,10.275000,-0.024320,
2025-11-21T07:38:57.075410+00:00,10.280000,-0.029640,
2025-11-21T07:38:57.080410+00:00,10.285000,-0.036100,
2025-11-21T07:38:57.085410+00:00,10.290000,-0.045220,
2025-11-21T07:38:57.090410+00:00,10.295000,-0.057000,
2025-11-21T07:38:57.095410+00:00,10.300000,-0.071440,
2025-11-21T07:38:57.100410+00:00,10.305000,-0.072580,
2025-11-21T07:38:57.105410+00:00,10.310000,-0.050160,
2025-11-21T07:38:57.110410+00:00,10.315000,-0.019000,
2025-11-21T07:38:57.115410+00:00,10.320000,-0.009120,
2025-11-21T07:38:57.120410+00:00,10.325000,-0.032680,
2025-11-21T07:38:57.125410+00:00,10.330000,-0.064980,
2025-11-21T07:38:57.130410+00:00,10.335000,-0.076380,
2025-11-21T07:38:57.135410+00:00,10.340000,-0.064980,
2025-11-21T07:38:57.140410+00:00,10.345000,-0.051680,
2025-11-21T07:38:57.145410+00:00,10.350000,-0.050160,
2025-11-21T07:38:57.150410+00:00,10.355000,-0.053200,
2025-11-21T07:38:57.155410+00:00,10.360000,-0.055100,
2025-11-21T07:38:57.160410+00:00,10.365000,-0.052440,
2025-11-21T07:38:57.165410+00:00,10.370000,-0.049020,
2025-11-21T07:38:57.170410+00:00,10.375000,-0.045220,
2025-11-21T07:38:57.175410+00:00,10.380000,-0.046360,
2025-11-21T07:38:57.180410+00:00,10.385000,-0.051300,
2025-11-21T07:38:57.185410+00:00,10.390000,-0.055860,
2025-11-21T07:38:57.190410+00:00,10.395000,-0.059660,
2025-11-21T07:38:57.195410+00:00,10.400000,-0.061560,
2025-11-21T07:38:57.200410+00:00,10.405000,-0.055480,
2025-11-21T07:38:57.205410+00:00,10.410000,-0.044080,
2025-11-21T07:38:57.210410+00:00,10.415000,-0.033060,
2025-11-21T07:38:57.215410+00:00,10.420000,-0.030400,
2025-11-21T07:38:57.220410+00:00,10.425000,-0.041420,
2025-11-21T07:38:57.225410+00:00,10.430000,-0.056620,
2025-11-21T07:38:57.230410+00:00,10.435000,-0.063080,
2025-11-21T07:38:57.235410+00:00,10.440000,-0.061180,
2025-11-21T07:38:57.240410+00:00,10.445000,-0.047880,
2025-11-21T07:38:57.245410+00:00,10.450000,-0.030400,
2025-11-21T07:38:57.250410+00:00,10.455000,-0.019760,
2025-11-21T07:38:57.255410+00:00,10.460000,-0.025460,
2025-11-21T07:38:57.260410+00:00,10.465000,-0.042940,
2025-11-21T07:38:57.265410+00:00,10.470000,-0.059280,
2025-11-21T07:38:57.270410+00:00,10.475000,-0.064980,
2025-11-21T07:38:57.275410+00:00,10.480000,-0.051680,
2025-11-21T07:38:57.280410+00:00,10.485000,-0.024320,
2025-11-21T07:38:57.285410+00:00,10.490000,-0.011400,
2025-11-21T07:38:57.290410+00:00,10.495000,-0.019760,
2025-11-21T07:38:57.295410+00:00,10.500000,-0.029640,
2025-11-21T07:38:57.300410+00:00,10.505000,-0.020520,
2025-11-21T07:38:57.305410+00:00,10.510000,-0.007600,
2025-11-21T07:38:57.310410+00:00,10.515000,-0.019000,
2025-11-21T07:38:57.315410+00:00,10.520000,-0.049780,
2025-11-21T07:38:57.320410+00:00,10.525000,-0.064980,
2025-11-21T07:38:57.325410+00:00,10.530000,-0.043320,
2025-11-21T07:38:57.330410+00:00,10.535000,-0.011780,
2025-11-21T07:38:57.335410+00:00,10.540000,0.000760,
2025-11-21T07:38:57.340410+00:00,10.545000,-0.017100,
2025-11-21T07:38:57.345410+00:00,10.550000,-0.053580,
2025-11-21T07:38:57.350410+00:00,10.555000,-0.083220,
2025-11-21T07:38:57.355410+00:00,10.560000,-0.076760,
2025-11-21T07:38:57.360410+00:00,10.565000,-0.042940,
2025-11-21T07:38:57.365410+00:00,10.570000,-0.019000,
2025-11-21T07:38:57.370410+00:00,10.575000,-0.026600,
2025-11-21T07:38:57.375410+00:00,10.580000,-0.047120,
2025-11-21T07:38:57.380410+00:00,10.585000,-0.053200,
2025-11-21T07:38:57.385410+00:00,10.590000,-0.043320,
2025-11-21T07:38:57.390410+00:00,10.595000,-0.038380,
2025-11-21T07:38:57.395410+00:00,10.600000,-0.035340,
2025-11-21T07:38:57.400410+00:00,10.605000,-0.030400,
2025-11-21T07:38:57.405410+00:00,10.610000,-0.028880,
2025-11-21T07:38:57.410410+00:00,10.615000,-0.040280,
2025-11-21T07:38:57.415410+00:00,10.620000,-0.058520,
2025-11-21T07:38:57.420410+00:00,10.625000,-0.068780,
2025-11-21T07:38:57.425410+00:00,10.630000,-0.070680,
2025-11-21T07:38:57.430410+00:00,10.635000,-0.063080,
2025-11-21T07:38:57.435410+00:00,10.640000,-0.046740,
2025-11-21T07:38:57.440410+00:00,10.645000,-0.027360,
2025-11-21T07:38:57.445410+00:00,10.650000,-0.020140,
2025-11-21T07:38:57.450410+00:00,10.655000,-0.036860,
2025-11-21T07:38:57.455410+00:00,10.660000,-0.060800,
2025-11-21T07:38:57.460410+00:00,10.665000,-0.066120,
2025-11-21T07:38:57.465410+00:00,10.670000,-0.044080,
2025-11-21T07:38:57.470410+00:00,10.675000,-0.014440,
2025-11-21T07:38:57.475410+00:00,10.680000,-0.006460,
2025-11-21T07:38:57.480410+00:00,10.685000,-0.018620,
2025-11-21T07:38:57.485410+00:00,10.690000,-0.032300,
2025-11-21T07:38:57.490410+00:00,10.695000,-0.037620,
2025-11-21T07:38:57.495410+00:00,10.700000,-0.043320,
2025-11-21T07:38:57.500410+00:00,10.705000,-0.051300,
2025-11-21T07:38:57.505410+00:00,10.710000,-0.055860,
2025-11-21T07:38:57.510410+00:00,10.715000,-0.053580,
2025-11-21T07:38:57.515410+00:00,10.720000,-0.044840,
2025-11-21T07:38:57.520410+00:00,10.725000,-0.038000,
2025-11-21T07:38:57.525410+00:00,10.730000,-0.040280,
2025-11-21T07:38:57.530410+00:00,10.735000,-0.042560,
2025-11-21T07:38:57.535410+00:00,10.740000,-0.045980,
2025-11-21T07:38:57.540410+00:00,10.745000,-0.047120,
2025-11-21T07:38:57.545410+00:00,10.750000,-0.043700,
2025-11-21T07:38:57.550410+00:00,10.755000,-0.042180,
2025-11-21T07:38:57.555410+00:00,10.760000,-0.048260,
2025-11-21T07:38:57.560410+00:00,10.765000,-0.052060,
2025-11-21T07:38:57.565410+00:00,10.770000,-0.042180,
2025-11-21T07:38:57.570410+00:00,10.775000,-0.031540,
2025-11-21T07:38:57.575410+00:00,10.780000,-0.043320,
2025-11-21T07:38:57.580410+00:00,10.785000,-0.063080,
2025-11-21T07:38:57.585410+00:00,10.790000,-0.061940,
2025-11-21T07:38:57.590410+00:00,10.795000,-0.036100,
2025-11-21T07:38:57.595410+00:00,10.800000,-0.009120,
2025-11-21T07:38:57.600410+00:00,10.805000,-0.006080,
2025-11-21T07:38:57.605410+00:00,10.810000,-0.021280,
2025-11-21T07:38:57.610410+00:00,10.815000,-0.035340,
2025-11-21T07:38:57.615410+00:00,10.820000,-0.041420,
2025-11-21T07:38:57.620410+00:00,10.825000,-0.047500,
2025-11-21T07:38:57.625410+00:00,10.830000,-0.047500,
2025-11-21T07:38:57.630410+00:00,10.835000,-0.039520,
2025-11-21T07:38:57.635410+00:00,10.840000,-0.038000,
2025-11-21T07:38:57.640410+00:00,10.845000,-0.052820,
2025-11-21T07:38:57.645410+00:00,10.850000,-0.064600,
2025-11-21T07:38:57.650410+00:00,10.855000,-0.058140,
2025-11-21T07:38:57.655410+00:00,10.860000,-0.038760,
2025-11-21T07:38:57.660410+00:00,10.865000,-0.026220,
2025-11-21T07:38:57.665410+00:00,10.870000,-0.038000,
2025-11-21T07:38:57.670410+00:00,10.875000,-0.055860,
2025-11-21T07:38:57.675410+00:00,10.880000,-0.054720,
2025-11-21T07:38:57.680410+00:00,10.885000,-0.041040,
2025-11-21T07:38:57.685410+00:00,10.890000,-0.038380,
2025-11-21T07:38:57.690410+00:00,10.895000,-0.048640,
2025-11-21T07:38:57.695410+00:00,10.900000,-0.051300,
2025-11-21T07:38:57.700410+00:00,10.905000,-0.034960,
2025-11-21T07:38:57.705410+00:00,10.910000,-0.017860,
2025-11-21T07:38:57.710410+00:00,10.915000,-0.017860,
2025-11-21T07:38:57.715410+00:00,10.920000,-0.028120,
2025-11-21T07:38:57.720410+00:00,10.925000,-0.032300,
2025-11-21T07:38:57.725410+00:00,10.930000,-0.033820,
2025-11-21T07:38:57.730410+00:00,10.935000,-0.039900,
2025-11-21T07:38:57.735410+00:00,10.940000,-0.046360,
2025-11-21T07:38:57.740410+00:00,10.945000,-0.049780,
2025-11-21T07:38:57.745410+00:00,10.950000,-0.049780,
2025-11-21T07:38:57.750410+00:00,10.955000,-0.051680,
2025-11-21T07:38:57.755410+00:00,10.960000,-0.051300,
2025-11-21T07:38:57.760410+00:00,10.965000,-0.037620,
2025-11-21T07:38:57.765410+00:00,10.970000,-0.016720,
2025-11-21T07:38:57.770410+00:00,10.975000,-0.009500,
2025-11-21T07:38:57.775410+00:00,10.980000,-0.025080,
2025-11-21T07:38:57.780410+00:00,10.985000,-0.045600,
2025-11-21T07:38:57.785410+00:00,10.990000,-0.055100,
2025-11-21T07:38:57.790410+00:00,10.995000,-0.060040,
2025-11-21T07:38:57.795410+00:00,11.000000,-0.069160,
2025-11-21T07:38:57.800410+00:00,11.005000,-0.079420,
2025-11-21T07:38:57.805410+00:00,11.010000,-0.068400,
2025-11-21T07:38:57.810410+00:00,11.015000,-0.038380,
2025-11-21T07:38:57.815410+00:00,11.020000,-0.018240,
2025-11-21T07:38:57.820410+00:00,11.025000,-0.036860,
2025-11-21T07:38:57.825410+00:00,11.030000,-0.069540,
2025-11-21T07:38:57.830410+00:00,11.035000,-0.066120,
2025-11-21T07:38:57.835410+00:00,11.040000,-0.025840,
2025-11-21T07:38:57.840410+00:00,11.045000,0.001520,
2025-11-21T07:38:57.845410+00:00,11.050000,-0.008740,
2025-11-21T07:38:57.850410+00:00,11.055000,-0.036860,
2025-11-21T07:38:57.855410+00:00,11.060000,-0.048640,
2025-11-21T07:38:57.860410+00:00,11.065000,-0.043320,
2025-11-21T07:38:57.865410+00:00,11.070000,-0.044840,
2025-11-21T07:38:57.870410+00:00,11.075000,-0.052440,
2025-11-21T07:38:57.875410+00:00,11.080000,-0.053580,
2025-11-21T07:38:57.880410+00:00,11.085000,-0.040660,
2025-11-21T07:38:57.885410+00:00,11.090000,-0.029640,
2025-11-21T07:38:57.890410+00:00,11.095000,-0.031920,
2025-11-21T07:38:57.895410+00:00,11.100000,-0.044840,
2025-11-21T07:38:57.900410+00:00,11.105000,-0.050160,
2025-11-21T07:38:57.905410+00:00,11.110000,-0.044080,
2025-11-21T07:38:57.910410+00:00,11.115000,-0.035720,
2025-11-21T07:38:57.915410+00:00,11.120000,-0.032300,
2025-11-21T07:38:57.920410+00:00,11.125000,-0.042560,
2025-11-21T07:38:57.925410+00:00,11.130000,-0.059280,
2025-11-21T07:38:57.930410+00:00,11.135000,-0.070680,
2025-11-21T07:38:57.935410+00:00,11.140000,-0.070300,
2025-11-21T07:38:57.940410+00:00,11.145000,-0.065740,
2025-11-21T07:38:57.945410+00:00,11.150000,-0.058520,
2025-11-21T07:38:57.950410+00:00,11.155000,-0.049780,
2025-11-21T07:38:57.955410+00:00,11.160000,-0.042940,
2025-11-21T07:38:57.960410+00:00,11.165000,-0.035340,
2025-11-21T07:38:57.965410+00:00,11.170000,-0.028500,
2025-11-21T07:38:57.970410+00:00,11.175000,-0.030780,
2025-11-21T07:38:57.975410+00:00,11.180000,-0.044460,
2025-11-21T07:38:57.980410+00:00,11.185000,-0.054720,
2025-11-21T07:38:57.985410+00:00,11.190000,-0.052820,
2025-11-21T07:38:57.990410+00:00,11.195000,-0.041420,
2025-11-21T07:38:57.995410+00:00,11.200000,-0.033440,
2025-11-21T07:38:58.000410+00:00,11.205000,-0.037620,
2025-11-21T07:38:58.005410+00:00,11.210000,-0.049020,
2025-11-21T07:38:58.010410+00:00,11.215000,-0.057000,
2025-11-21T07:38:58.015410+00:00,11.220000,-0.063080,
2025-11-21T07:38:58.020410+00:00,11.225000,-0.068400,
2025-11-21T07:38:58.025410+00:00,11.230000,-0.067260,
2025-11-21T07:38:58.030410+00:00,11.235000,-0.057760,
2025-11-21T07:38:58.035410+00:00,11.240000,-0.053580,
2025-11-21T07:38:58.040410+00:00,11.245000,-0.058520,
2025-11-21T07:38:58.045410+00:00,11.250000,-0.055860,
2025-11-21T07:38:58.050410+00:00,11.255000,-0.033060,
2025-11-21T07:38:58.055410+00:00,11.260000,-0.012160,
2025-11-21T07:38:58.060410+00:00,11.265000,-0.016340,
2025-11-21T07:38:58.065410+00:00,11.270000,-0.033440,
2025-11-21T07:38:58.070410+00:00,11.275000,-0.035720,
2025-11-21T07:38:58.075410+00:00,11.280000,-0.021280,
2025-11-21T07:38:58.080410+00:00,11.285000,-0.018620,
2025-11-21T07:38:58.085410+00:00,11.290000,-0.040280,
2025-11-21T07:38:58.090410+00:00,11.295000,-0.059280,
2025-11-21T07:38:58.095410+00:00,11.300000,-0.064980,
2025-11-21T07:38:58.100410+00:00,11.305000,-0.062700,
2025-11-21T07:38:58.105410+00:00,11.310000,-0.056240,
2025-11-21T07:38:58.110410+00:00,11.315000,-0.042940,
2025-11-21T07:38:58.115410+00:00,11.320000,-0.030780,
