timestamp_utc,t_rel_sec,ecg_mV,event
2025-10-15T05:16:24.188989+00:00,0.000000,0.000000,
2025-10-15T05:16:24.193989+00:00,0.005000,-0.000380,
2025-10-15T05:16:24.198989+00:00,0.010000,-0.000380,
2025-10-15T05:16:24.203989+00:00,0.015000,-0.001140,
2025-10-15T05:16:24.208989+00:00,0.020000,-0.009880,
2025-10-15T05:16:24.213989+00:00,0.025000,0.011020,
2025-10-15T05:16:24.218989+00:00,0.030000,0.029640,
2025-10-15T05:16:24.223989+00:00,0.035000,-0.131100,
2025-10-15T05:16:24.228989+00:00,0.040000,-0.057760,
2025-10-15T05:16:24.233989+00:00,0.045000,0.528580,
2025-10-15T05:16:24.238989+00:00,0.050000,0.276640,
2025-10-15T05:16:24.243989+00:00,0.055000,-1.176100,
2025-10-15T05:16:24.248989+00:00,0.060000,-0.891100,
2025-10-15T05:16:24.253989+00:00,0.065000,3.850540,
2025-10-15T05:16:24.258989+00:00,0.070000,11.083840,
2025-10-15T05:16:24.263989+00:00,0.075000,15.539720,
2025-10-15T05:16:24.268989+00:00,0.080000,14.682440,
2025-10-15T05:16:24.273989+00:00,0.085000,11.291320,
2025-10-15T05:16:24.278989+00:00,0.090000,9.360160,
2025-10-15T05:16:24.283989+00:00,0.095000,9.359400,
2025-10-15T05:16:24.288989+00:00,0.100000,9.382960,
2025-10-15T05:16:24.293989+00:00,0.105000,8.994600,
2025-10-15T05:16:24.298989+00:00,0.110000,8.718720,
2025-10-15T05:16:24.303989+00:00,0.115000,8.492620,
2025-10-15T05:16:24.308989+00:00,0.120000,8.243340,
2025-10-15T05:16:24.313989+00:00,0.125000,8.034720,
2025-10-15T05:16:24.318989+00:00,0.130000,7.853460,
2025-10-15T05:16:24.323989+00:00,0.135000,7.672200,
2025-10-15T05:16:24.328989+00:00,0.140000,7.486760,
2025-10-15T05:16:24.333989+00:00,0.145000,7.316140,
2025-10-15T05:16:24.338989+00:00,0.150000,7.165280,
2025-10-15T05:16:24.343989+00:00,0.155000,7.024680,
2025-10-15T05:16:24.348989+00:00,0.160000,6.890160,
2025-10-15T05:16:24.353989+00:00,0.165000,6.761720,
2025-10-15T05:16:24.358989+00:00,0.170000,6.638220,
2025-10-15T05:16:24.363989+00:00,0.175000,6.515100,
2025-10-15T05:16:24.368989+00:00,0.180000,6.395400,
2025-10-15T05:16:24.373989+00:00,0.185000,6.284820,
2025-10-15T05:16:24.378989+00:00,0.190000,6.176520,
2025-10-15T05:16:24.383989+00:00,0.195000,6.063280,
2025-10-15T05:16:24.388989+00:00,0.200000,5.948900,
2025-10-15T05:16:24.393989+00:00,0.205000,5.843640,
2025-10-15T05:16:24.398989+00:00,0.210000,5.749780,
2025-10-15T05:16:24.403989+00:00,0.215000,5.652120,
2025-10-15T05:16:24.408989+00:00,0.220000,5.550280,
2025-10-15T05:16:24.413989+00:00,0.225000,5.455280,
2025-10-15T05:16:24.418989+00:00,0.230000,5.369400,
2025-10-15T05:16:24.423989+00:00,0.235000,5.285420,
2025-10-15T05:16:24.428989+00:00,0.240000,5.205620,
2025-10-15T05:16:24.433989+00:00,0.245000,5.123540,
2025-10-15T05:16:24.438989+00:00,0.250000,5.028920,
2025-10-15T05:16:24.443989+00:00,0.255000,4.922900,
2025-10-15T05:16:24.448989+00:00,0.260000,4.823720,
2025-10-15T05:16:24.453989+00:00,0.265000,4.748480,
2025-10-15T05:16:24.458989+00:00,0.270000,4.691100,
2025-10-15T05:16:24.463989+00:00,0.275000,4.637140,
2025-10-15T05:16:24.468989+00:00,0.280000,4.566080,
2025-10-15T05:16:24.473989+00:00,0.285000,4.478680,
2025-10-15T05:16:24.478989+00:00,0.290000,4.392800,
2025-10-15T05:16:24.483989+00:00,0.295000,4.317940,
2025-10-15T05:16:24.488989+00:00,0.300000,4.250300,
2025-10-15T05:16:24.493989+00:00,0.305000,4.182280,
2025-10-15T05:16:24.498989+00:00,0.310000,4.112740,
2025-10-15T05:16:24.503989+00:00,0.315000,4.045100,
2025-10-15T05:16:24.508989+00:00,0.320000,3.981640,
2025-10-15T05:16:24.513989+00:00,0.325000,3.924640,
2025-10-15T05:16:24.518989+00:00,0.330000,3.869920,
2025-10-15T05:16:24.523989+00:00,0.335000,3.816340,
2025-10-15T05:16:24.528989+00:00,0.340000,3.760860,
2025-10-15T05:16:24.533989+00:00,0.345000,3.698160,
2025-10-15T05:16:24.538989+00:00,0.350000,3.627860,
2025-10-15T05:16:24.543989+00:00,0.355000,3.554140,
2025-10-15T05:16:24.548989+00:00,0.360000,3.489160,
2025-10-15T05:16:24.553989+00:00,0.365000,3.433300,
2025-10-15T05:16:24.558989+00:00,0.370000,3.382000,
2025-10-15T05:16:24.563989+00:00,0.375000,3.326520,
2025-10-15T05:16:24.568989+00:00,0.380000,3.266100,
2025-10-15T05:16:24.573989+00:00,0.385000,3.214420,
2025-10-15T05:16:24.578989+00:00,0.390000,3.171100,
2025-10-15T05:16:24.583989+00:00,0.395000,3.128920,
2025-10-15T05:16:24.588989+00:00,0.400000,3.076100,
2025-10-15T05:16:24.593989+00:00,0.405000,3.016820,
2025-10-15T05:16:24.598989+00:00,0.410000,2.963620,
2025-10-15T05:16:24.603989+00:00,0.415000,2.918780,
2025-10-15T05:16:24.608989+00:00,0.420000,2.878880,
2025-10-15T05:16:24.613989+00:00,0.425000,2.838220,
2025-10-15T05:16:24.618989+00:00,0.430000,2.790720,
2025-10-15T05:16:24.623989+00:00,0.435000,2.734480,
2025-10-15T05:16:24.628989+00:00,0.440000,2.678240,
2025-10-15T05:16:24.633989+00:00,0.445000,2.640240,
2025-10-15T05:16:24.638989+00:00,0.450000,2.615920,
2025-10-15T05:16:24.643989+00:00,0.455000,2.588940,
2025-10-15T05:16:24.648989+00:00,0.460000,2.541060,
2025-10-15T05:16:24.653989+00:00,0.465000,2.480260,
2025-10-15T05:16:24.658989+00:00,0.470000,2.428580,
2025-10-15T05:16:24.663989+00:00,0.475000,2.394760,
2025-10-15T05:16:24.668989+00:00,0.480000,2.362080,
2025-10-15T05:16:24.673989+00:00,0.485000,2.324460,
2025-10-15T05:16:24.678989+00:00,0.490000,2.288360,
2025-10-15T05:16:24.683989+00:00,0.495000,2.257960,
2025-10-15T05:16:24.688989+00:00,0.500000,2.219960,
2025-10-15T05:16:24.693989+00:00,0.505000,2.172080,
2025-10-15T05:16:24.698989+00:00,0.510000,2.124580,
2025-10-15T05:16:24.703989+00:00,0.515000,2.094560,
2025-10-15T05:16:24.708989+00:00,0.520000,2.072900,
2025-10-15T05:16:24.713989+00:00,0.525000,2.048580,
2025-10-15T05:16:24.718989+00:00,0.530000,2.016280,
2025-10-15T05:16:24.723989+00:00,0.535000,1.983980,
2025-10-15T05:16:24.728989+00:00,0.540000,1.952440,
2025-10-15T05:16:24.733989+00:00,0.545000,1.920520,
2025-10-15T05:16:24.738989+00:00,0.550000,1.885560,
2025-10-15T05:16:24.743989+00:00,0.555000,1.848700,
2025-10-15T05:16:24.748989+00:00,0.560000,1.810320,
2025-10-15T05:16:24.753989+00:00,0.565000,1.777640,
2025-10-15T05:16:24.758989+00:00,0.570000,1.752180,
2025-10-15T05:16:24.763989+00:00,0.575000,1.728240,
2025-10-15T05:16:24.768989+00:00,0.580000,1.699740,
2025-10-15T05:16:24.773989+00:00,0.585000,1.669340,
2025-10-15T05:16:24.778989+00:00,0.590000,1.642740,
2025-10-15T05:16:24.783989+00:00,0.595000,1.622980,
2025-10-15T05:16:24.788989+00:00,0.600000,1.600940,
2025-10-15T05:16:24.793989+00:00,0.605000,1.575480,
2025-10-15T05:16:24.798989+00:00,0.610000,1.545840,
2025-10-15T05:16:24.803989+00:00,0.615000,1.511640,
2025-10-15T05:16:24.808989+00:00,0.620000,1.482380,
2025-10-15T05:16:24.813989+00:00,0.625000,1.456540,
2025-10-15T05:16:24.818989+00:00,0.630000,1.431460,
2025-10-15T05:16:24.823989+00:00,0.635000,1.408660,
2025-10-15T05:16:24.828989+00:00,0.640000,1.392320,
2025-10-15T05:16:24.833989+00:00,0.645000,1.380160,
2025-10-15T05:16:24.838989+00:00,0.650000,1.363820,
2025-10-15T05:16:24.843989+00:00,0.655000,1.339500,
2025-10-15T05:16:24.848989+00:00,0.660000,1.312900,
2025-10-15T05:16:24.853989+00:00,0.665000,1.291620,
2025-10-15T05:16:24.858989+00:00,0.670000,1.271100,
2025-10-15T05:16:24.863989+00:00,0.675000,1.241840,
2025-10-15T05:16:24.868989+00:00,0.680000,1.216760,
2025-10-15T05:16:24.873989+00:00,0.685000,1.204600,
2025-10-15T05:16:24.878989+00:00,0.690000,1.199280,
2025-10-15T05:16:24.883989+00:00,0.695000,1.185980,
2025-10-15T05:16:24.888989+00:00,0.700000,1.158240,
2025-10-15T05:16:24.893989+00:00,0.705000,1.128220,
2025-10-15T05:16:24.898989+00:00,0.710000,1.109600,
2025-10-15T05:16:24.903989+00:00,0.715000,1.095540,
2025-10-15T05:16:24.908989+00:00,0.720000,1.075020,
2025-10-15T05:16:24.913989+00:00,0.725000,1.051080,
2025-10-15T05:16:24.918989+00:00,0.730000,1.028280,
2025-10-15T05:16:24.923989+00:00,0.735000,1.007380,
2025-10-15T05:16:24.928989+00:00,0.740000,0.992560,
2025-10-15T05:16:24.933989+00:00,0.745000,0.988760,
2025-10-15T05:16:24.938989+00:00,0.750000,0.985720,
2025-10-15T05:16:24.943989+00:00,0.755000,0.971280,
2025-10-15T05:16:24.948989+00:00,0.760000,0.944300,
2025-10-15T05:16:24.953989+00:00,0.765000,0.915040,
2025-10-15T05:16:24.958989+00:00,0.770000,0.893760,
2025-10-15T05:16:24.963989+00:00,0.775000,0.877420,
2025-10-15T05:16:24.968989+00:00,0.780000,0.857660,
2025-10-15T05:16:24.973989+00:00,0.785000,0.838280,
2025-10-15T05:16:24.978989+00:00,0.790000,0.826880,
2025-10-15T05:16:24.983989+00:00,0.795000,0.819280,
2025-10-15T05:16:24.988989+00:00,0.800000,0.812820,
2025-10-15T05:16:24.993989+00:00,0.805000,0.811680,
2025-10-15T05:16:24.998989+00:00,0.810000,0.810920,
2025-10-15T05:16:25.003989+00:00,0.815000,0.803700,
2025-10-15T05:16:25.008989+00:00,0.820000,0.786600,
2025-10-15T05:16:25.013989+00:00,0.825000,0.761900,
2025-10-15T05:16:25.018989+00:00,0.830000,0.734920,
2025-10-15T05:16:25.023989+00:00,0.835000,0.709080,
2025-10-15T05:16:25.028989+00:00,0.840000,0.695400,
2025-10-15T05:16:25.033989+00:00,0.845000,0.695780,
2025-10-15T05:16:25.038989+00:00,0.850000,0.702240,
2025-10-15T05:16:25.043989+00:00,0.855000,0.701480,
2025-10-15T05:16:25.048989+00:00,0.860000,0.691600,
2025-10-15T05:16:25.053989+00:00,0.865000,0.674120,
2025-10-15T05:16:25.058989+00:00,0.870000,0.652840,
2025-10-15T05:16:25.063989+00:00,0.875000,0.639540,
2025-10-15T05:16:25.068989+00:00,0.880000,0.634220,
2025-10-15T05:16:25.073989+00:00,0.885000,0.630420,
2025-10-15T05:16:25.078989+00:00,0.890000,0.615220,
2025-10-15T05:16:25.083989+00:00,0.895000,0.592800,
2025-10-15T05:16:25.088989+00:00,0.900000,0.570760,
2025-10-15T05:16:25.093989+00:00,0.905000,0.559740,
2025-10-15T05:16:25.098989+00:00,0.910000,0.553660,
2025-10-15T05:16:25.103989+00:00,0.915000,0.539600,
2025-10-15T05:16:25.108989+00:00,0.920000,0.523260,
2025-10-15T05:16:25.113989+00:00,0.925000,0.513760,
2025-10-15T05:16:25.118989+00:00,0.930000,0.511480,
2025-10-15T05:16:25.123989+00:00,0.935000,0.509200,
2025-10-15T05:16:25.128989+00:00,0.940000,0.511480,
2025-10-15T05:16:25.133989+00:00,0.945000,0.514140,
2025-10-15T05:16:25.138989+00:00,0.950000,0.503500,
2025-10-15T05:16:25.143989+00:00,0.955000,0.485260,
2025-10-15T05:16:25.148989+00:00,0.960000,0.473100,
2025-10-15T05:16:25.153989+00:00,0.965000,0.466260,
2025-10-15T05:16:25.158989+00:00,0.970000,0.456760,
2025-10-15T05:16:25.163989+00:00,0.975000,0.443460,
2025-10-15T05:16:25.168989+00:00,0.980000,0.432060,
2025-10-15T05:16:25.173989+00:00,0.985000,0.427500,
2025-10-15T05:16:25.178989+00:00,0.990000,0.426740,
2025-10-15T05:16:25.183989+00:00,0.995000,0.423320,
2025-10-15T05:16:25.188989+00:00,1.000000,0.417620,
2025-10-15T05:16:25.193989+00:00,1.005000,0.406980,
2025-10-15T05:16:25.198989+00:00,1.010000,0.390640,
2025-10-15T05:16:25.203989+00:00,1.015000,0.375440,
2025-10-15T05:16:25.208989+00:00,1.020000,0.380380,
2025-10-15T05:16:25.213989+00:00,1.025000,0.394820,
2025-10-15T05:16:25.218989+00:00,1.030000,0.393680,
2025-10-15T05:16:25.223989+00:00,1.035000,0.372780,
2025-10-15T05:16:25.228989+00:00,1.040000,0.356820,
2025-10-15T05:16:25.233989+00:00,1.045000,0.353400,
2025-10-15T05:16:25.238989+00:00,1.050000,0.350740,
2025-10-15T05:16:25.243989+00:00,1.055000,0.334780,
2025-10-15T05:16:25.248989+00:00,1.060000,0.316160,
2025-10-15T05:16:25.253989+00:00,1.065000,0.309320,
2025-10-15T05:16:25.258989+00:00,1.070000,0.313120,
2025-10-15T05:16:25.263989+00:00,1.075000,0.319580,
2025-10-15T05:16:25.268989+00:00,1.080000,0.316920,
2025-10-15T05:16:25.273989+00:00,1.085000,0.306660,
2025-10-15T05:16:25.278989+00:00,1.090000,0.294880,
2025-10-15T05:16:25.283989+00:00,1.095000,0.288800,
2025-10-15T05:16:25.288989+00:00,1.100000,0.286520,
2025-10-15T05:16:25.293989+00:00,1.105000,0.284620,
2025-10-15T05:16:25.298989+00:00,1.110000,0.281960,
2025-10-15T05:16:25.303989+00:00,1.115000,0.277020,
2025-10-15T05:16:25.308989+00:00,1.120000,0.272460,
2025-10-15T05:16:25.313989+00:00,1.125000,0.262580,
2025-10-15T05:16:25.318989+00:00,1.130000,0.246240,
2025-10-15T05:16:25.323989+00:00,1.135000,0.230280,
2025-10-15T05:16:25.328989+00:00,1.140000,0.224580,
2025-10-15T05:16:25.333989+00:00,1.145000,0.223820,
2025-10-15T05:16:25.338989+00:00,1.150000,0.221540,
2025-10-15T05:16:25.343989+00:00,1.155000,0.218500,
2025-10-15T05:16:25.348989+00:00,1.160000,0.216220,
2025-10-15T05:16:25.353989+00:00,1.165000,0.213560,
2025-10-15T05:16:25.358989+00:00,1.170000,0.212800,
2025-10-15T05:16:25.363989+00:00,1.175000,0.213560,
2025-10-15T05:16:25.368989+00:00,1.180000,0.210900,
2025-10-15T05:16:25.373989+00:00,1.185000,0.200260,
2025-10-15T05:16:25.378989+00:00,1.190000,0.183540,
2025-10-15T05:16:25.383989+00:00,1.195000,0.172900,
2025-10-15T05:16:25.388989+00:00,1.200000,0.175940,
2025-10-15T05:16:25.393989+00:00,1.205000,0.186580,
2025-10-15T05:16:25.398989+00:00,1.210000,0.194560,
2025-10-15T05:16:25.403989+00:00,1.215000,0.191900,
2025-10-15T05:16:25.408989+00:00,1.220000,0.180120,
2025-10-15T05:16:25.413989+00:00,1.225000,0.174800,
2025-10-15T05:16:25.418989+00:00,1.230000,0.174420,
2025-10-15T05:16:25.423989+00:00,1.235000,0.172140,
2025-10-15T05:16:25.428989+00:00,1.240000,0.163020,
2025-10-15T05:16:25.433989+00:00,1.245000,0.150480,
2025-10-15T05:16:25.438989+00:00,1.250000,0.139840,
2025-10-15T05:16:25.443989+00:00,1.255000,0.137560,
2025-10-15T05:16:25.448989+00:00,1.260000,0.143640,
2025-10-15T05:16:25.453989+00:00,1.265000,0.154660,
2025-10-15T05:16:25.458989+00:00,1.270000,0.159600,
2025-10-15T05:16:25.463989+00:00,1.275000,0.153520,
2025-10-15T05:16:25.468989+00:00,1.280000,0.139460,
2025-10-15T05:16:25.473989+00:00,1.285000,0.123500,
2025-10-15T05:16:25.478989+00:00,1.290000,0.115520,
2025-10-15T05:16:25.483989+00:00,1.295000,0.114000,
2025-10-15T05:16:25.488989+00:00,1.300000,0.110960,
2025-10-15T05:16:25.493989+00:00,1.305000,0.105640,
2025-10-15T05:16:25.498989+00:00,1.310000,0.105640,
2025-10-15T05:16:25.503989+00:00,1.315000,0.112860,
2025-10-15T05:16:25.508989+00:00,1.320000,0.113620,
2025-10-15T05:16:25.513989+00:00,1.325000,0.100320,
2025-10-15T05:16:25.518989+00:00,1.330000,0.082840,
2025-10-15T05:16:25.523989+00:00,1.335000,0.076760,
2025-10-15T05:16:25.528989+00:00,1.340000,0.090060,
2025-10-15T05:16:25.533989+00:00,1.345000,0.107540,
2025-10-15T05:16:25.538989+00:00,1.350000,0.110200,
2025-10-15T05:16:25.543989+00:00,1.355000,0.104880,
2025-10-15T05:16:25.548989+00:00,1.360000,0.109440,
2025-10-15T05:16:25.553989+00:00,1.365000,0.120080,
2025-10-15T05:16:25.558989+00:00,1.370000,0.116660,
2025-10-15T05:16:25.563989+00:00,1.375000,0.100320,
2025-10-15T05:16:25.568989+00:00,1.380000,0.081320,
2025-10-15T05:16:25.573989+00:00,1.385000,0.071820,
2025-10-15T05:16:25.578989+00:00,1.390000,0.067640,
2025-10-15T05:16:25.583989+00:00,1.395000,0.062700,
2025-10-15T05:16:25.588989+00:00,1.400000,0.058140,
2025-10-15T05:16:25.593989+00:00,1.405000,0.063460,
2025-10-15T05:16:25.598989+00:00,1.410000,0.073720,
2025-10-15T05:16:25.603989+00:00,1.415000,0.075240,
2025-10-15T05:16:25.608989+00:00,1.420000,0.070300,
2025-10-15T05:16:25.613989+00:00,1.425000,0.071440,
2025-10-15T05:16:25.618989+00:00,1.430000,0.072960,
2025-10-15T05:16:25.623989+00:00,1.435000,0.065360,
2025-10-15T05:16:25.628989+00:00,1.440000,0.054340,
2025-10-15T05:16:25.633989+00:00,1.445000,0.046740,
2025-10-15T05:16:25.638989+00:00,1.450000,0.049020,
2025-10-15T05:16:25.643989+00:00,1.455000,0.056620,
2025-10-15T05:16:25.648989+00:00,1.460000,0.067260,
2025-10-15T05:16:25.653989+00:00,1.465000,0.073340,
2025-10-15T05:16:25.658989+00:00,1.470000,0.071440,
2025-10-15T05:16:25.663989+00:00,1.475000,0.063460,
2025-10-15T05:16:25.668989+00:00,1.480000,0.063080,
2025-10-15T05:16:25.673989+00:00,1.485000,0.069920,
2025-10-15T05:16:25.678989+00:00,1.490000,0.068400,
2025-10-15T05:16:25.683989+00:00,1.495000,0.054720,
2025-10-15T05:16:25.688989+00:00,1.500000,0.036860,
2025-10-15T05:16:25.693989+00:00,1.505000,0.028880,
2025-10-15T05:16:25.698989+00:00,1.510000,0.030780,
2025-10-15T05:16:25.703989+00:00,1.515000,0.038760,
2025-10-15T05:16:25.708989+00:00,1.520000,0.045600,
2025-10-15T05:16:25.713989+00:00,1.525000,0.046360,
2025-10-15T05:16:25.718989+00:00,1.530000,0.042180,
2025-10-15T05:16:25.723989+00:00,1.535000,0.031540,
2025-10-15T05:16:25.728989+00:00,1.540000,0.027740,
2025-10-15T05:16:25.733989+00:00,1.545000,0.027740,
2025-10-15T05:16:25.738989+00:00,1.550000,0.024320,
2025-10-15T05:16:25.743989+00:00,1.555000,0.020140,
2025-10-15T05:16:25.748989+00:00,1.560000,0.023560,
2025-10-15T05:16:25.753989+00:00,1.565000,0.028880,
2025-10-15T05:16:25.758989+00:00,1.570000,0.029260,
2025-10-15T05:16:25.763989+00:00,1.575000,0.025840,
2025-10-15T05:16:25.768989+00:00,1.580000,0.023180,
2025-10-15T05:16:25.773989+00:00,1.585000,0.025080,
2025-10-15T05:16:25.778989+00:00,1.590000,0.034960,
2025-10-15T05:16:25.783989+00:00,1.595000,0.041040,
2025-10-15T05:16:25.788989+00:00,1.600000,0.036100,
2025-10-15T05:16:25.793989+00:00,1.605000,0.025460,
2025-10-15T05:16:25.798989+00:00,1.610000,0.018240,
2025-10-15T05:16:25.803989+00:00,1.615000,0.019760,
2025-10-15T05:16:25.808989+00:00,1.620000,0.019380,
2025-10-15T05:16:25.813989+00:00,1.625000,0.011020,
2025-10-15T05:16:25.818989+00:00,1.630000,0.000000,
2025-10-15T05:16:25.823989+00:00,1.635000,-0.003040,
2025-10-15T05:16:25.828989+00:00,1.640000,0.009500,
2025-10-15T05:16:25.833989+00:00,1.645000,0.022040,
2025-10-15T05:16:25.838989+00:00,1.650000,0.023940,
2025-10-15T05:16:25.843989+00:00,1.655000,0.015960,
2025-10-15T05:16:25.848989+00:00,1.660000,0.008740,
2025-10-15T05:16:25.853989+00:00,1.665000,0.008360,
2025-10-15T05:16:25.858989+00:00,1.670000,0.012540,
2025-10-15T05:16:25.863989+00:00,1.675000,0.017860,
2025-10-15T05:16:25.868989+00:00,1.680000,0.021660,
2025-10-15T05:16:25.873989+00:00,1.685000,0.025460,
2025-10-15T05:16:25.878989+00:00,1.690000,0.022420,
2025-10-15T05:16:25.883989+00:00,1.695000,0.009880,
2025-10-15T05:16:25.888989+00:00,1.700000,-0.004560,
2025-10-15T05:16:25.893989+00:00,1.705000,-0.005700,
2025-10-15T05:16:25.898989+00:00,1.710000,0.001140,
2025-10-15T05:16:25.903989+00:00,1.715000,0.002660,
2025-10-15T05:16:25.908989+00:00,1.720000,-0.003800,
2025-10-15T05:16:25.913989+00:00,1.725000,-0.009500,
2025-10-15T05:16:25.918989+00:00,1.730000,-0.012920,
2025-10-15T05:16:25.923989+00:00,1.735000,-0.016720,
2025-10-15T05:16:25.928989+00:00,1.740000,-0.015960,
2025-10-15T05:16:25.933989+00:00,1.745000,-0.004560,
2025-10-15T05:16:25.938989+00:00,1.750000,0.005700,
2025-10-15T05:16:25.943989+00:00,1.755000,0.005700,
2025-10-15T05:16:25.948989+00:00,1.760000,-0.002660,
2025-10-15T05:16:25.953989+00:00,1.765000,-0.008740,
2025-10-15T05:16:25.958989+00:00,1.770000,-0.013300,
2025-10-15T05:16:25.963989+00:00,1.775000,-0.022420,
2025-10-15T05:16:25.968989+00:00,1.780000,-0.038000,
2025-10-15T05:16:25.973989+00:00,1.785000,-0.047880,
2025-10-15T05:16:25.978989+00:00,1.790000,-0.042940,
2025-10-15T05:16:25.983989+00:00,1.795000,-0.028500,
2025-10-15T05:16:25.988989+00:00,1.800000,-0.024320,
2025-10-15T05:16:25.993989+00:00,1.805000,-0.029640,
2025-10-15T05:16:25.998989+00:00,1.810000,-0.027740,
2025-10-15T05:16:26.003989+00:00,1.815000,-0.006460,
2025-10-15T05:16:26.008989+00:00,1.820000,0.012540,
2025-10-15T05:16:26.013989+00:00,1.825000,0.009880,
2025-10-15T05:16:26.018989+00:00,1.830000,-0.010640,
2025-10-15T05:16:26.023989+00:00,1.835000,-0.019760,
2025-10-15T05:16:26.028989+00:00,1.840000,-0.005700,
2025-10-15T05:16:26.033989+00:00,1.845000,0.010260,
2025-10-15T05:16:26.038989+00:00,1.850000,0.004180,
2025-10-15T05:16:26.043989+00:00,1.855000,-0.016340,
2025-10-15T05:16:26.048989+00:00,1.860000,-0.023940,
2025-10-15T05:16:26.053989+00:00,1.865000,-0.013680,
2025-10-15T05:16:26.058989+00:00,1.870000,-0.003040,
2025-10-15T05:16:26.063989+00:00,1.875000,-0.008360,
2025-10-15T05:16:26.068989+00:00,1.880000,-0.022800,
2025-10-15T05:16:26.073989+00:00,1.885000,-0.028120,
2025-10-15T05:16:26.078989+00:00,1.890000,-0.012540,
2025-10-15T05:16:26.083989+00:00,1.895000,0.003800,
2025-10-15T05:16:26.088989+00:00,1.900000,0.002280,
2025-10-15T05:16:26.093989+00:00,1.905000,-0.015580,
2025-10-15T05:16:26.098989+00:00,1.910000,-0.032300,
2025-10-15T05:16:26.103989+00:00,1.915000,-0.040280,
2025-10-15T05:16:26.108989+00:00,1.920000,-0.036100,
2025-10-15T05:16:26.113989+00:00,1.925000,-0.026220,
2025-10-15T05:16:26.118989+00:00,1.930000,-0.017480,
2025-10-15T05:16:26.123989+00:00,1.935000,-0.017860,
2025-10-15T05:16:26.128989+00:00,1.940000,-0.020520,
2025-10-15T05:16:26.133989+00:00,1.945000,-0.016340,
2025-10-15T05:16:26.138989+00:00,1.950000,-0.007600,
2025-10-15T05:16:26.143989+00:00,1.955000,0.000000,
2025-10-15T05:16:26.148989+00:00,1.960000,0.004940,
2025-10-15T05:16:26.153989+00:00,1.965000,0.004940,
2025-10-15T05:16:26.158989+00:00,1.970000,-0.006080,
2025-10-15T05:16:26.163989+00:00,1.975000,-0.023940,
2025-10-15T05:16:26.168989+00:00,1.980000,-0.036480,
2025-10-15T05:16:26.173989+00:00,1.985000,-0.033820,
2025-10-15T05:16:26.178989+00:00,1.990000,-0.022800,
2025-10-15T05:16:26.183989+00:00,1.995000,-0.019760,
2025-10-15T05:16:26.188989+00:00,2.000000,-0.023940,
2025-10-15T05:16:26.193989+00:00,2.005000,-0.025460,
2025-10-15T05:16:26.198989+00:00,2.010000,-0.021280,
2025-10-15T05:16:26.203989+00:00,2.015000,-0.024320,
2025-10-15T05:16:26.208989+00:00,2.020000,-0.034960,
2025-10-15T05:16:26.213989+00:00,2.025000,-0.036860,
2025-10-15T05:16:26.218989+00:00,2.030000,-0.028120,
2025-10-15T05:16:26.223989+00:00,2.035000,-0.021660,
2025-10-15T05:16:26.228989+00:00,2.040000,-0.020900,
2025-10-15T05:16:26.233989+00:00,2.045000,-0.023180,
2025-10-15T05:16:26.238989+00:00,2.050000,-0.024320,
2025-10-15T05:16:26.243989+00:00,2.055000,-0.024700,
2025-10-15T05:16:26.248989+00:00,2.060000,-0.025460,
2025-10-15T05:16:26.253989+00:00,2.065000,-0.029640,
2025-10-15T05:16:26.258989+00:00,2.070000,-0.028500,
2025-10-15T05:16:26.263989+00:00,2.075000,-0.024700,
2025-10-15T05:16:26.268989+00:00,2.080000,-0.023180,
2025-10-15T05:16:26.273989+00:00,2.085000,-0.020900,
2025-10-15T05:16:26.278989+00:00,2.090000,-0.020900,
2025-10-15T05:16:26.283989+00:00,2.095000,-0.026220,
2025-10-15T05:16:26.288989+00:00,2.100000,-0.038380,
2025-10-15T05:16:26.293989+00:00,2.105000,-0.039520,
2025-10-15T05:16:26.298989+00:00,2.110000,-0.023180,
2025-10-15T05:16:26.303989+00:00,2.115000,-0.001140,
2025-10-15T05:16:26.308989+00:00,2.120000,0.004560,
2025-10-15T05:16:26.313989+00:00,2.125000,-0.005700,
2025-10-15T05:16:26.318989+00:00,2.130000,-0.014440,
2025-10-15T05:16:26.323989+00:00,2.135000,-0.014060,
2025-10-15T05:16:26.328989+00:00,2.140000,-0.010640,
2025-10-15T05:16:26.333989+00:00,2.145000,-0.004940,
2025-10-15T05:16:26.338989+00:00,2.150000,-0.001900,
2025-10-15T05:16:26.343989+00:00,2.155000,0.003420,
2025-10-15T05:16:26.348989+00:00,2.160000,0.003420,
2025-10-15T05:16:26.353989+00:00,2.165000,-0.006460,
2025-10-15T05:16:26.358989+00:00,2.170000,-0.024320,
2025-10-15T05:16:26.363989+00:00,2.175000,-0.036480,
2025-10-15T05:16:26.368989+00:00,2.180000,-0.033440,
2025-10-15T05:16:26.373989+00:00,2.185000,-0.022420,
2025-10-15T05:16:26.378989+00:00,2.190000,-0.015200,
2025-10-15T05:16:26.383989+00:00,2.195000,-0.020520,
2025-10-15T05:16:26.388989+00:00,2.200000,-0.032300,
2025-10-15T05:16:26.393989+00:00,2.205000,-0.035720,
2025-10-15T05:16:26.398989+00:00,2.210000,-0.033820,
2025-10-15T05:16:26.403989+00:00,2.215000,-0.037620,
2025-10-15T05:16:26.408989+00:00,2.220000,-0.042180,
2025-10-15T05:16:26.413989+00:00,2.225000,-0.038000,
2025-10-15T05:16:26.418989+00:00,2.230000,-0.029640,
2025-10-15T05:16:26.423989+00:00,2.235000,-0.027360,
2025-10-15T05:16:26.428989+00:00,2.240000,-0.034580,
2025-10-15T05:16:26.433989+00:00,2.245000,-0.041040,
2025-10-15T05:16:26.438989+00:00,2.250000,-0.039520,
2025-10-15T05:16:26.443989+00:00,2.255000,-0.037620,
2025-10-15T05:16:26.448989+00:00,2.260000,-0.039140,
2025-10-15T05:16:26.453989+00:00,2.265000,-0.038000,
2025-10-15T05:16:26.458989+00:00,2.270000,-0.030400,
2025-10-15T05:16:26.463989+00:00,2.275000,-0.026220,
2025-10-15T05:16:26.468989+00:00,2.280000,-0.040280,
2025-10-15T05:16:26.473989+00:00,2.285000,-0.059280,
2025-10-15T05:16:26.478989+00:00,2.290000,-0.062700,
2025-10-15T05:16:26.483989+00:00,2.295000,-0.049780,
2025-10-15T05:16:26.488989+00:00,2.300000,-0.035340,
2025-10-15T05:16:26.493989+00:00,2.305000,-0.031920,
2025-10-15T05:16:26.498989+00:00,2.310000,-0.031920,
2025-10-15T05:16:26.503989+00:00,2.315000,-0.031160,
2025-10-15T05:16:26.508989+00:00,2.320000,-0.031160,
2025-10-15T05:16:26.513989+00:00,2.325000,-0.035340,
2025-10-15T05:16:26.518989+00:00,2.330000,-0.037620,
2025-10-15T05:16:26.523989+00:00,2.335000,-0.039900,
2025-10-15T05:16:26.528989+00:00,2.340000,-0.041420,
2025-10-15T05:16:26.533989+00:00,2.345000,-0.044460,
2025-10-15T05:16:26.538989+00:00,2.350000,-0.045600,
2025-10-15T05:16:26.543989+00:00,2.355000,-0.042180,
2025-10-15T05:16:26.548989+00:00,2.360000,-0.034960,
2025-10-15T05:16:26.553989+00:00,2.365000,-0.033820,
2025-10-15T05:16:26.558989+00:00,2.370000,-0.033820,
2025-10-15T05:16:26.563989+00:00,2.375000,-0.030020,
2025-10-15T05:16:26.568989+00:00,2.380000,-0.027740,
2025-10-15T05:16:26.573989+00:00,2.385000,-0.031160,
2025-10-15T05:16:26.578989+00:00,2.390000,-0.034200,
2025-10-15T05:16:26.583989+00:00,2.395000,-0.037620,
2025-10-15T05:16:26.588989+00:00,2.400000,-0.037620,
2025-10-15T05:16:26.593989+00:00,2.405000,-0.026980,
2025-10-15T05:16:26.598989+00:00,2.410000,-0.013300,
2025-10-15T05:16:26.603989+00:00,2.415000,-0.012160,
2025-10-15T05:16:26.608989+00:00,2.420000,-0.026600,
2025-10-15T05:16:26.613989+00:00,2.425000,-0.045600,
2025-10-15T05:16:26.618989+00:00,2.430000,-0.049020,
2025-10-15T05:16:26.623989+00:00,2.435000,-0.036480,
2025-10-15T05:16:26.628989+00:00,2.440000,-0.026220,
2025-10-15T05:16:26.633989+00:00,2.445000,-0.032300,
2025-10-15T05:16:26.638989+00:00,2.450000,-0.045600,
2025-10-15T05:16:26.643989+00:00,2.455000,-0.053960,
2025-10-15T05:16:26.648989+00:00,2.460000,-0.049400,
2025-10-15T05:16:26.653989+00:00,2.465000,-0.040660,
2025-10-15T05:16:26.658989+00:00,2.470000,-0.038380,
2025-10-15T05:16:26.663989+00:00,2.475000,-0.039900,
2025-10-15T05:16:26.668989+00:00,2.480000,-0.041040,
2025-10-15T05:16:26.673989+00:00,2.485000,-0.041040,
2025-10-15T05:16:26.678989+00:00,2.490000,-0.036860,
2025-10-15T05:16:26.683989+00:00,2.495000,-0.031920,
2025-10-15T05:16:26.688989+00:00,2.500000,-0.033440,
2025-10-15T05:16:26.693989+00:00,2.505000,-0.037240,
2025-10-15T05:16:26.698989+00:00,2.510000,-0.035720,
2025-10-15T05:16:26.703989+00:00,2.515000,-0.030020,
2025-10-15T05:16:26.708989+00:00,2.520000,-0.023180,
2025-10-15T05:16:26.713989+00:00,2.525000,-0.017860,
2025-10-15T05:16:26.718989+00:00,2.530000,-0.017100,
2025-10-15T05:16:26.723989+00:00,2.535000,-0.017480,
2025-10-15T05:16:26.728989+00:00,2.540000,-0.017480,
2025-10-15T05:16:26.733989+00:00,2.545000,-0.019000,
2025-10-15T05:16:26.738989+00:00,2.550000,-0.021660,
2025-10-15T05:16:26.743989+00:00,2.555000,-0.023560,
2025-10-15T05:16:26.748989+00:00,2.560000,-0.024320,
2025-10-15T05:16:26.753989+00:00,2.565000,-0.024320,
2025-10-15T05:16:26.758989+00:00,2.570000,-0.028120,
2025-10-15T05:16:26.763989+00:00,2.575000,-0.032680,
2025-10-15T05:16:26.768989+00:00,2.580000,-0.031160,
2025-10-15T05:16:26.773989+00:00,2.585000,-0.025080,
2025-10-15T05:16:26.778989+00:00,2.590000,-0.021660,
2025-10-15T05:16:26.783989+00:00,2.595000,-0.026600,
2025-10-15T05:16:26.788989+00:00,2.600000,-0.031920,
2025-10-15T05:16:26.793989+00:00,2.605000,-0.029640,
2025-10-15T05:16:26.798989+00:00,2.610000,-0.023180,
2025-10-15T05:16:26.803989+00:00,2.615000,-0.025080,
2025-10-15T05:16:26.808989+00:00,2.620000,-0.033820,
2025-10-15T05:16:26.813989+00:00,2.625000,-0.040280,
2025-10-15T05:16:26.818989+00:00,2.630000,-0.044460,
2025-10-15T05:16:26.823989+00:00,2.635000,-0.049020,
2025-10-15T05:16:26.828989+00:00,2.640000,-0.050920,
2025-10-15T05:16:26.833989+00:00,2.645000,-0.047880,
2025-10-15T05:16:26.838989+00:00,2.650000,-0.047880,
2025-10-15T05:16:26.843989+00:00,2.655000,-0.047880,
2025-10-15T05:16:26.848989+00:00,2.660000,-0.041420,
2025-10-15T05:16:26.853989+00:00,2.665000,-0.039900,
2025-10-15T05:16:26.858989+00:00,2.670000,-0.046740,
2025-10-15T05:16:26.863989+00:00,2.675000,-0.059280,
2025-10-15T05:16:26.868989+00:00,2.680000,-0.062700,
2025-10-15T05:16:26.873989+00:00,2.685000,-0.050160,
2025-10-15T05:16:26.878989+00:00,2.690000,-0.038760,
2025-10-15T05:16:26.883989+00:00,2.695000,-0.044840,
2025-10-15T05:16:26.888989+00:00,2.700000,-0.054340,
2025-10-15T05:16:26.893989+00:00,2.705000,-0.049020,
2025-10-15T05:16:26.898989+00:00,2.710000,-0.036100,
2025-10-15T05:16:26.903989+00:00,2.715000,-0.042180,
2025-10-15T05:16:26.908989+00:00,2.720000,-0.062700,
2025-10-15T05:16:26.913989+00:00,2.725000,-0.072580,
2025-10-15T05:16:26.918989+00:00,2.730000,-0.063840,
2025-10-15T05:16:26.923989+00:00,2.735000,-0.053200,
2025-10-15T05:16:26.928989+00:00,2.740000,-0.052820,
2025-10-15T05:16:26.933989+00:00,2.745000,-0.058520,
2025-10-15T05:16:26.938989+00:00,2.750000,-0.059660,
2025-10-15T05:16:26.943989+00:00,2.755000,-0.053200,
2025-10-15T05:16:26.948989+00:00,2.760000,-0.041800,
2025-10-15T05:16:26.953989+00:00,2.765000,-0.032680,
2025-10-15T05:16:26.958989+00:00,2.770000,-0.032300,
2025-10-15T05:16:26.963989+00:00,2.775000,-0.042940,
2025-10-15T05:16:26.968989+00:00,2.780000,-0.057760,
2025-10-15T05:16:26.973989+00:00,2.785000,-0.063460,
2025-10-15T05:16:26.978989+00:00,2.790000,-0.054720,
2025-10-15T05:16:26.983989+00:00,2.795000,-0.042560,
2025-10-15T05:16:26.988989+00:00,2.800000,-0.041040,
2025-10-15T05:16:26.993989+00:00,2.805000,-0.047120,
2025-10-15T05:16:26.998989+00:00,2.810000,-0.050160,
2025-10-15T05:16:27.003989+00:00,2.815000,-0.046360,
2025-10-15T05:16:27.008989+00:00,2.820000,-0.035720,
2025-10-15T05:16:27.013989+00:00,2.825000,-0.027360,
2025-10-15T05:16:27.018989+00:00,2.830000,-0.023560,
2025-10-15T05:16:27.023989+00:00,2.835000,-0.025460,
2025-10-15T05:16:27.028989+00:00,2.840000,-0.027360,
2025-10-15T05:16:27.033989+00:00,2.845000,-0.025080,
2025-10-15T05:16:27.038989+00:00,2.850000,-0.023560,
2025-10-15T05:16:27.043989+00:00,2.855000,-0.025460,
2025-10-15T05:16:27.048989+00:00,2.860000,-0.031920,
2025-10-15T05:16:27.053989+00:00,2.865000,-0.038000,
2025-10-15T05:16:27.058989+00:00,2.870000,-0.035720,
2025-10-15T05:16:27.063989+00:00,2.875000,-0.027740,
2025-10-15T05:16:27.068989+00:00,2.880000,-0.024320,
2025-10-15T05:16:27.073989+00:00,2.885000,-0.028880,
2025-10-15T05:16:27.078989+00:00,2.890000,-0.033820,
2025-10-15T05:16:27.083989+00:00,2.895000,-0.030780,
2025-10-15T05:16:27.088989+00:00,2.900000,-0.026980,
2025-10-15T05:16:27.093989+00:00,2.905000,-0.025460,
2025-10-15T05:16:27.098989+00:00,2.910000,-0.026980,
2025-10-15T05:16:27.103989+00:00,2.915000,-0.028120,
2025-10-15T05:16:27.108989+00:00,2.920000,-0.030020,
2025-10-15T05:16:27.113989+00:00,2.925000,-0.038380,
2025-10-15T05:16:27.118989+00:00,2.930000,-0.052440,
2025-10-15T05:16:27.123989+00:00,2.935000,-0.060800,
2025-10-15T05:16:27.128989+00:00,2.940000,-0.062700,
2025-10-15T05:16:27.133989+00:00,2.945000,-0.060800,
2025-10-15T05:16:27.138989+00:00,2.950000,-0.053580,
2025-10-15T05:16:27.143989+00:00,2.955000,-0.042180,
2025-10-15T05:16:27.148989+00:00,2.960000,-0.031160,
2025-10-15T05:16:27.153989+00:00,2.965000,-0.031160,
2025-10-15T05:16:27.158989+00:00,2.970000,-0.040280,
2025-10-15T05:16:27.163989+00:00,2.975000,-0.049400,
2025-10-15T05:16:27.168989+00:00,2.980000,-0.052440,
2025-10-15T05:16:27.173989+00:00,2.985000,-0.054720,
2025-10-15T05:16:27.178989+00:00,2.990000,-0.055100,
2025-10-15T05:16:27.183989+00:00,2.995000,-0.045980,
2025-10-15T05:16:27.188989+00:00,3.000000,-0.030400,
2025-10-15T05:16:27.193989+00:00,3.005000,-0.021660,
2025-10-15T05:16:27.198989+00:00,3.010000,-0.023180,
2025-10-15T05:16:27.203989+00:00,3.015000,-0.028880,
2025-10-15T05:16:27.208989+00:00,3.020000,-0.031540,
2025-10-15T05:16:27.213989+00:00,3.025000,-0.033440,
2025-10-15T05:16:27.218989+00:00,3.030000,-0.039900,
2025-10-15T05:16:27.223989+00:00,3.035000,-0.048260,
2025-10-15T05:16:27.228989+00:00,3.040000,-0.052820,
2025-10-15T05:16:27.233989+00:00,3.045000,-0.048640,
2025-10-15T05:16:27.238989+00:00,3.050000,-0.047120,
2025-10-15T05:16:27.243989+00:00,3.055000,-0.053580,
2025-10-15T05:16:27.248989+00:00,3.060000,-0.061180,
2025-10-15T05:16:27.253989+00:00,3.065000,-0.064600,
2025-10-15T05:16:27.258989+00:00,3.070000,-0.061180,
2025-10-15T05:16:27.263989+00:00,3.075000,-0.048640,
2025-10-15T05:16:27.268989+00:00,3.080000,-0.036480,
2025-10-15T05:16:27.273989+00:00,3.085000,-0.033820,
2025-10-15T05:16:27.278989+00:00,3.090000,-0.037620,
2025-10-15T05:16:27.283989+00:00,3.095000,-0.033440,
2025-10-15T05:16:27.288989+00:00,3.100000,-0.027740,
2025-10-15T05:16:27.293989+00:00,3.105000,-0.029640,
2025-10-15T05:16:27.298989+00:00,3.110000,-0.038380,
2025-10-15T05:16:27.303989+00:00,3.115000,-0.040660,
2025-10-15T05:16:27.308989+00:00,3.120000,-0.035720,
2025-10-15T05:16:27.313989+00:00,3.125000,-0.029260,
2025-10-15T05:16:27.318989+00:00,3.130000,-0.033060,
2025-10-15T05:16:27.323989+00:00,3.135000,-0.042560,
2025-10-15T05:16:27.328989+00:00,3.140000,-0.044460,
2025-10-15T05:16:27.333989+00:00,3.145000,-0.036860,
2025-10-15T05:16:27.338989+00:00,3.150000,-0.026980,
2025-10-15T05:16:27.343989+00:00,3.155000,-0.023560,
2025-10-15T05:16:27.348989+00:00,3.160000,-0.031540,
2025-10-15T05:16:27.353989+00:00,3.165000,-0.052060,
2025-10-15T05:16:27.358989+00:00,3.170000,-0.070300,
2025-10-15T05:16:27.363989+00:00,3.175000,-0.071440,
2025-10-15T05:16:27.368989+00:00,3.180000,-0.055480,
2025-10-15T05:16:27.373989+00:00,3.185000,-0.040280,
2025-10-15T05:16:27.378989+00:00,3.190000,-0.037240,
2025-10-15T05:16:27.383989+00:00,3.195000,-0.041040,
2025-10-15T05:16:27.388989+00:00,3.200000,-0.044080,
2025-10-15T05:16:27.393989+00:00,3.205000,-0.039140,
2025-10-15T05:16:27.398989+00:00,3.210000,-0.032680,
2025-10-15T05:16:27.403989+00:00,3.215000,-0.033820,
2025-10-15T05:16:27.408989+00:00,3.220000,-0.040280,
2025-10-15T05:16:27.413989+00:00,3.225000,-0.041040,
2025-10-15T05:16:27.418989+00:00,3.230000,-0.041800,
2025-10-15T05:16:27.423989+00:00,3.235000,-0.049780,
2025-10-15T05:16:27.428989+00:00,3.240000,-0.055480,
2025-10-15T05:16:27.433989+00:00,3.245000,-0.052440,
2025-10-15T05:16:27.438989+00:00,3.250000,-0.044080,
2025-10-15T05:16:27.443989+00:00,3.255000,-0.037240,
2025-10-15T05:16:27.448989+00:00,3.260000,-0.034200,
2025-10-15T05:16:27.453989+00:00,3.265000,-0.031920,
2025-10-15T05:16:27.458989+00:00,3.270000,-0.033440,
2025-10-15T05:16:27.463989+00:00,3.275000,-0.036860,
2025-10-15T05:16:27.468989+00:00,3.280000,-0.039520,
2025-10-15T05:16:27.473989+00:00,3.285000,-0.038000,
2025-10-15T05:16:27.478989+00:00,3.290000,-0.031920,
2025-10-15T05:16:27.483989+00:00,3.295000,-0.031540,
2025-10-15T05:16:27.488989+00:00,3.300000,-0.038760,
2025-10-15T05:16:27.493989+00:00,3.305000,-0.042560,
2025-10-15T05:16:27.498989+00:00,3.310000,-0.039140,
2025-10-15T05:16:27.503989+00:00,3.315000,-0.036860,
2025-10-15T05:16:27.508989+00:00,3.320000,-0.035720,
2025-10-15T05:16:27.513989+00:00,3.325000,-0.035720,
2025-10-15T05:16:27.518989+00:00,3.330000,-0.035720,
2025-10-15T05:16:27.523989+00:00,3.335000,-0.035720,
2025-10-15T05:16:27.528989+00:00,3.340000,-0.032300,
2025-10-15T05:16:27.533989+00:00,3.345000,-0.034960,
2025-10-15T05:16:27.538989+00:00,3.350000,-0.038760,
2025-10-15T05:16:27.543989+00:00,3.355000,-0.038380,
2025-10-15T05:16:27.548989+00:00,3.360000,-0.030780,
2025-10-15T05:16:27.553989+00:00,3.365000,-0.022800,
2025-10-15T05:16:27.558989+00:00,3.370000,-0.018240,
2025-10-15T05:16:27.563989+00:00,3.375000,-0.022800,
2025-10-15T05:16:27.568989+00:00,3.380000,-0.033060,
2025-10-15T05:16:27.573989+00:00,3.385000,-0.040280,
2025-10-15T05:16:27.578989+00:00,3.390000,-0.040660,
2025-10-15T05:16:27.583989+00:00,3.395000,-0.044840,
2025-10-15T05:16:27.588989+00:00,3.400000,-0.055860,
2025-10-15T05:16:27.593989+00:00,3.405000,-0.063080,
2025-10-15T05:16:27.598989+00:00,3.410000,-0.060040,
2025-10-15T05:16:27.603989+00:00,3.415000,-0.049020,
2025-10-15T05:16:27.608989+00:00,3.420000,-0.039520,
2025-10-15T05:16:27.613989+00:00,3.425000,-0.044460,
2025-10-15T05:16:27.618989+00:00,3.430000,-0.061940,
2025-10-15T05:16:27.623989+00:00,3.435000,-0.078280,
2025-10-15T05:16:27.628989+00:00,3.440000,-0.074480,
2025-10-15T05:16:27.633989+00:00,3.445000,-0.054720,
2025-10-15T05:16:27.638989+00:00,3.450000,-0.035720,
2025-10-15T05:16:27.643989+00:00,3.455000,-0.032680,
2025-10-15T05:16:27.648989+00:00,3.460000,-0.042940,
2025-10-15T05:16:27.653989+00:00,3.465000,-0.049780,
2025-10-15T05:16:27.658989+00:00,3.470000,-0.045220,
2025-10-15T05:16:27.663989+00:00,3.475000,-0.035720,
2025-10-15T05:16:27.668989+00:00,3.480000,-0.028120,
2025-10-15T05:16:27.673989+00:00,3.485000,-0.032680,
2025-10-15T05:16:27.678989+00:00,3.490000,-0.049020,
2025-10-15T05:16:27.683989+00:00,3.495000,-0.070300,
2025-10-15T05:16:27.688989+00:00,3.500000,-0.083220,
2025-10-15T05:16:27.693989+00:00,3.505000,-0.078660,
2025-10-15T05:16:27.698989+00:00,3.510000,-0.066120,
2025-10-15T05:16:27.703989+00:00,3.515000,-0.062320,
2025-10-15T05:16:27.708989+00:00,3.520000,-0.066500,
2025-10-15T05:16:27.713989+00:00,3.525000,-0.061560,
2025-10-15T05:16:27.718989+00:00,3.530000,-0.052820,
2025-10-15T05:16:27.723989+00:00,3.535000,-0.053200,
2025-10-15T05:16:27.728989+00:00,3.540000,-0.063840,
2025-10-15T05:16:27.733989+00:00,3.545000,-0.065740,
2025-10-15T05:16:27.738989+00:00,3.550000,-0.059660,
2025-10-15T05:16:27.743989+00:00,3.555000,-0.054340,
2025-10-15T05:16:27.748989+00:00,3.560000,-0.060040,
2025-10-15T05:16:27.753989+00:00,3.565000,-0.065740,
2025-10-15T05:16:27.758989+00:00,3.570000,-0.058900,
2025-10-15T05:16:27.763989+00:00,3.575000,-0.041040,
2025-10-15T05:16:27.768989+00:00,3.580000,-0.031160,
2025-10-15T05:16:27.773989+00:00,3.585000,-0.034580,
2025-10-15T05:16:27.778989+00:00,3.590000,-0.048260,
2025-10-15T05:16:27.783989+00:00,3.595000,-0.057760,
2025-10-15T05:16:27.788989+00:00,3.600000,-0.059660,
2025-10-15T05:16:27.793989+00:00,3.605000,-0.050540,
2025-10-15T05:16:27.798989+00:00,3.610000,-0.038760,
2025-10-15T05:16:27.803989+00:00,3.615000,-0.031160,
2025-10-15T05:16:27.808989+00:00,3.620000,-0.034580,
2025-10-15T05:16:27.813989+00:00,3.625000,-0.045220,
2025-10-15T05:16:27.818989+00:00,3.630000,-0.056240,
2025-10-15T05:16:27.823989+00:00,3.635000,-0.058900,
2025-10-15T05:16:27.828989+00:00,3.640000,-0.052060,
2025-10-15T05:16:27.833989+00:00,3.645000,-0.045600,
2025-10-15T05:16:27.838989+00:00,3.650000,-0.048640,
2025-10-15T05:16:27.843989+00:00,3.655000,-0.050160,
2025-10-15T05:16:27.848989+00:00,3.660000,-0.046740,
2025-10-15T05:16:27.853989+00:00,3.665000,-0.042560,
2025-10-15T05:16:27.858989+00:00,3.670000,-0.047120,
2025-10-15T05:16:27.863989+00:00,3.675000,-0.055480,
2025-10-15T05:16:27.868989+00:00,3.680000,-0.059280,
2025-10-15T05:16:27.873989+00:00,3.685000,-0.054720,
2025-10-15T05:16:27.878989+00:00,3.690000,-0.039900,
2025-10-15T05:16:27.883989+00:00,3.695000,-0.022420,
2025-10-15T05:16:27.888989+00:00,3.700000,-0.016340,
2025-10-15T05:16:27.893989+00:00,3.705000,-0.027740,
2025-10-15T05:16:27.898989+00:00,3.710000,-0.045220,
2025-10-15T05:16:27.903989+00:00,3.715000,-0.054340,
2025-10-15T05:16:27.908989+00:00,3.720000,-0.052820,
2025-10-15T05:16:27.913989+00:00,3.725000,-0.049780,
2025-10-15T05:16:27.918989+00:00,3.730000,-0.051680,
2025-10-15T05:16:27.923989+00:00,3.735000,-0.052820,
2025-10-15T05:16:27.928989+00:00,3.740000,-0.041800,
2025-10-15T05:16:27.933989+00:00,3.745000,-0.029260,
2025-10-15T05:16:27.938989+00:00,3.750000,-0.029640,
2025-10-15T05:16:27.943989+00:00,3.755000,-0.039520,
2025-10-15T05:16:27.948989+00:00,3.760000,-0.044840,
2025-10-15T05:16:27.953989+00:00,3.765000,-0.045600,
2025-10-15T05:16:27.958989+00:00,3.770000,-0.045220,
2025-10-15T05:16:27.963989+00:00,3.775000,-0.044080,
2025-10-15T05:16:27.968989+00:00,3.780000,-0.038760,
2025-10-15T05:16:27.973989+00:00,3.785000,-0.033820,
2025-10-15T05:16:27.978989+00:00,3.790000,-0.033820,
2025-10-15T05:16:27.983989+00:00,3.795000,-0.043700,
2025-10-15T05:16:27.988989+00:00,3.800000,-0.056620,
2025-10-15T05:16:27.993989+00:00,3.805000,-0.060420,
2025-10-15T05:16:27.998989+00:00,3.810000,-0.048260,
2025-10-15T05:16:28.003989+00:00,3.815000,-0.026220,
2025-10-15T05:16:28.008989+00:00,3.820000,-0.011400,
2025-10-15T05:16:28.013989+00:00,3.825000,-0.020140,
2025-10-15T05:16:28.018989+00:00,3.830000,-0.049400,
2025-10-15T05:16:28.023989+00:00,3.835000,-0.074480,
2025-10-15T05:16:28.028989+00:00,3.840000,-0.080180,
2025-10-15T05:16:28.033989+00:00,3.845000,-0.077900,
2025-10-15T05:16:28.038989+00:00,3.850000,-0.082460,
2025-10-15T05:16:28.043989+00:00,3.855000,-0.089300,
2025-10-15T05:16:28.048989+00:00,3.860000,-0.082460,
2025-10-15T05:16:28.053989+00:00,3.865000,-0.059280,
2025-10-15T05:16:28.058989+00:00,3.870000,-0.036480,
2025-10-15T05:16:28.063989+00:00,3.875000,-0.027740,
2025-10-15T05:16:28.068989+00:00,3.880000,-0.033440,
2025-10-15T05:16:28.073989+00:00,3.885000,-0.036860,
2025-10-15T05:16:28.078989+00:00,3.890000,-0.030020,
2025-10-15T05:16:28.083989+00:00,3.895000,-0.023180,
2025-10-15T05:16:28.088989+00:00,3.900000,-0.028500,
2025-10-15T05:16:28.093989+00:00,3.905000,-0.039520,
2025-10-15T05:16:28.098989+00:00,3.910000,-0.041420,
2025-10-15T05:16:28.103989+00:00,3.915000,-0.032300,
2025-10-15T05:16:28.108989+00:00,3.920000,-0.026980,
2025-10-15T05:16:28.113989+00:00,3.925000,-0.027740,
2025-10-15T05:16:28.118989+00:00,3.930000,-0.032680,
2025-10-15T05:16:28.123989+00:00,3.935000,-0.035720,
2025-10-15T05:16:28.128989+00:00,3.940000,-0.033440,
2025-10-15T05:16:28.133989+00:00,3.945000,-0.034200,
2025-10-15T05:16:28.138989+00:00,3.950000,-0.040280,
2025-10-15T05:16:28.143989+00:00,3.955000,-0.041800,
2025-10-15T05:16:28.148989+00:00,3.960000,-0.032680,
2025-10-15T05:16:28.153989+00:00,3.965000,-0.023560,
2025-10-15T05:16:28.158989+00:00,3.970000,-0.025460,
2025-10-15T05:16:28.163989+00:00,3.975000,-0.037240,
2025-10-15T05:16:28.168989+00:00,3.980000,-0.051300,
2025-10-15T05:16:28.173989+00:00,3.985000,-0.048640,
2025-10-15T05:16:28.178989+00:00,3.990000,-0.031540,
2025-10-15T05:16:28.183989+00:00,3.995000,-0.020900,
2025-10-15T05:16:28.188989+00:00,4.000000,-0.029260,
2025-10-15T05:16:28.193989+00:00,4.005000,-0.043320,
2025-10-15T05:16:28.198989+00:00,4.010000,-0.045600,
2025-10-15T05:16:28.203989+00:00,4.015000,-0.034960,
2025-10-15T05:16:28.208989+00:00,4.020000,-0.024700,
2025-10-15T05:16:28.213989+00:00,4.025000,-0.023560,
2025-10-15T05:16:28.218989+00:00,4.030000,-0.031540,
2025-10-15T05:16:28.223989+00:00,4.035000,-0.036860,
2025-10-15T05:16:28.228989+00:00,4.040000,-0.032300,
2025-10-15T05:16:28.233989+00:00,4.045000,-0.020520,
2025-10-15T05:16:28.238989+00:00,4.050000,-0.015580,
2025-10-15T05:16:28.243989+00:00,4.055000,-0.018620,
2025-10-15T05:16:28.248989+00:00,4.060000,-0.021660,
2025-10-15T05:16:28.253989+00:00,4.065000,-0.021280,
2025-10-15T05:16:28.258989+00:00,4.070000,-0.025080,
2025-10-15T05:16:28.263989+00:00,4.075000,-0.038380,
2025-10-15T05:16:28.268989+00:00,4.080000,-0.049020,
2025-10-15T05:16:28.273989+00:00,4.085000,-0.039900,
2025-10-15T05:16:28.278989+00:00,4.090000,-0.021280,
2025-10-15T05:16:28.283989+00:00,4.095000,-0.018620,
2025-10-15T05:16:28.288989+00:00,4.100000,-0.032300,
2025-10-15T05:16:28.293989+00:00,4.105000,-0.039520,
2025-10-15T05:16:28.298989+00:00,4.110000,-0.025460,
2025-10-15T05:16:28.303989+00:00,4.115000,-0.009880,
2025-10-15T05:16:28.308989+00:00,4.120000,-0.012920,
2025-10-15T05:16:28.313989+00:00,4.125000,-0.031160,
2025-10-15T05:16:28.318989+00:00,4.130000,-0.044080,
2025-10-15T05:16:28.323989+00:00,4.135000,-0.040280,
2025-10-15T05:16:28.328989+00:00,4.140000,-0.025080,
2025-10-15T05:16:28.333989+00:00,4.145000,-0.015960,
2025-10-15T05:16:28.338989+00:00,4.150000,-0.021660,
2025-10-15T05:16:28.343989+00:00,4.155000,-0.037240,
2025-10-15T05:16:28.348989+00:00,4.160000,-0.050160,
2025-10-15T05:16:28.353989+00:00,4.165000,-0.057760,
2025-10-15T05:16:28.358989+00:00,4.170000,-0.055480,
2025-10-15T05:16:28.363989+00:00,4.175000,-0.044080,
2025-10-15T05:16:28.368989+00:00,4.180000,-0.027360,
2025-10-15T05:16:28.373989+00:00,4.185000,-0.017860,
2025-10-15T05:16:28.378989+00:00,4.190000,-0.017860,
2025-10-15T05:16:28.383989+00:00,4.195000,-0.026980,
2025-10-15T05:16:28.388989+00:00,4.200000,-0.034580,
2025-10-15T05:16:28.393989+00:00,4.205000,-0.030400,
2025-10-15T05:16:28.398989+00:00,4.210000,-0.020900,
2025-10-15T05:16:28.403989+00:00,4.215000,-0.023560,
2025-10-15T05:16:28.408989+00:00,4.220000,-0.037240,
2025-10-15T05:16:28.413989+00:00,4.225000,-0.047880,
2025-10-15T05:16:28.418989+00:00,4.230000,-0.047500,
2025-10-15T05:16:28.423989+00:00,4.235000,-0.041040,
2025-10-15T05:16:28.428989+00:00,4.240000,-0.041420,
2025-10-15T05:16:28.433989+00:00,4.245000,-0.048640,
2025-10-15T05:16:28.438989+00:00,4.250000,-0.051680,
2025-10-15T05:16:28.443989+00:00,4.255000,-0.042940,
2025-10-15T05:16:28.448989+00:00,4.260000,-0.030780,
2025-10-15T05:16:28.453989+00:00,4.265000,-0.027740,
2025-10-15T05:16:28.458989+00:00,4.270000,-0.028500,
2025-10-15T05:16:28.463989+00:00,4.275000,-0.031540,
2025-10-15T05:16:28.468989+00:00,4.280000,-0.038380,
2025-10-15T05:16:28.473989+00:00,4.285000,-0.045220,
2025-10-15T05:16:28.478989+00:00,4.290000,-0.041040,
2025-10-15T05:16:28.483989+00:00,4.295000,-0.025080,
2025-10-15T05:16:28.488989+00:00,4.300000,-0.015580,
2025-10-15T05:16:28.493989+00:00,4.305000,-0.025080,
2025-10-15T05:16:28.498989+00:00,4.310000,-0.044840,
2025-10-15T05:16:28.503989+00:00,4.315000,-0.054720,
2025-10-15T05:16:28.508989+00:00,4.320000,-0.042940,
2025-10-15T05:16:28.513989+00:00,4.325000,-0.023560,
2025-10-15T05:16:28.518989+00:00,4.330000,-0.022420,
2025-10-15T05:16:28.523989+00:00,4.335000,-0.039900,
2025-10-15T05:16:28.528989+00:00,4.340000,-0.056240,
2025-10-15T05:16:28.533989+00:00,4.345000,-0.049020,
2025-10-15T05:16:28.538989+00:00,4.350000,-0.028500,
2025-10-15T05:16:28.543989+00:00,4.355000,-0.019000,
2025-10-15T05:16:28.548989+00:00,4.360000,-0.027360,
2025-10-15T05:16:28.553989+00:00,4.365000,-0.040280,
2025-10-15T05:16:28.558989+00:00,4.370000,-0.044840,
2025-10-15T05:16:28.563989+00:00,4.375000,-0.032680,
2025-10-15T05:16:28.568989+00:00,4.380000,-0.018240,
2025-10-15T05:16:28.573989+00:00,4.385000,-0.017480,
2025-10-15T05:16:28.578989+00:00,4.390000,-0.034960,
2025-10-15T05:16:28.583989+00:00,4.395000,-0.052060,
2025-10-15T05:16:28.588989+00:00,4.400000,-0.058520,
2025-10-15T05:16:28.593989+00:00,4.405000,-0.057000,
2025-10-15T05:16:28.598989+00:00,4.410000,-0.059660,
2025-10-15T05:16:28.603989+00:00,4.415000,-0.064980,
2025-10-15T05:16:28.608989+00:00,4.420000,-0.061180,
2025-10-15T05:16:28.613989+00:00,4.425000,-0.045980,
2025-10-15T05:16:28.618989+00:00,4.430000,-0.038380,
2025-10-15T05:16:28.623989+00:00,4.435000,-0.046360,
2025-10-15T05:16:28.628989+00:00,4.440000,-0.058140,
2025-10-15T05:16:28.633989+00:00,4.445000,-0.062320,
2025-10-15T05:16:28.638989+00:00,4.450000,-0.057760,
2025-10-15T05:16:28.643989+00:00,4.455000,-0.052440,
2025-10-15T05:16:28.648989+00:00,4.460000,-0.054720,
2025-10-15T05:16:28.653989+00:00,4.465000,-0.062320,
2025-10-15T05:16:28.658989+00:00,4.470000,-0.062700,
2025-10-15T05:16:28.663989+00:00,4.475000,-0.054340,
2025-10-15T05:16:28.668989+00:00,4.480000,-0.051680,
2025-10-15T05:16:28.673989+00:00,4.485000,-0.062700,
2025-10-15T05:16:28.678989+00:00,4.490000,-0.073720,
2025-10-15T05:16:28.683989+00:00,4.495000,-0.072960,
2025-10-15T05:16:28.688989+00:00,4.500000,-0.065740,
2025-10-15T05:16:28.693989+00:00,4.505000,-0.058520,
2025-10-15T05:16:28.698989+00:00,4.510000,-0.050540,
2025-10-15T05:16:28.703989+00:00,4.515000,-0.044460,
2025-10-15T05:16:28.708989+00:00,4.520000,-0.042940,
2025-10-15T05:16:28.713989+00:00,4.525000,-0.043700,
2025-10-15T05:16:28.718989+00:00,4.530000,-0.045980,
2025-10-15T05:16:28.723989+00:00,4.535000,-0.047500,
2025-10-15T05:16:28.728989+00:00,4.540000,-0.042940,
2025-10-15T05:16:28.733989+00:00,4.545000,-0.028120,
2025-10-15T05:16:28.738989+00:00,4.550000,-0.014440,
2025-10-15T05:16:28.743989+00:00,4.555000,-0.014820,
2025-10-15T05:16:28.748989+00:00,4.560000,-0.026600,
2025-10-15T05:16:28.753989+00:00,4.565000,-0.038380,
2025-10-15T05:16:28.758989+00:00,4.570000,-0.037620,
2025-10-15T05:16:28.763989+00:00,4.575000,-0.026980,
2025-10-15T05:16:28.768989+00:00,4.580000,-0.025080,
2025-10-15T05:16:28.773989+00:00,4.585000,-0.034580,
2025-10-15T05:16:28.778989+00:00,4.590000,-0.040660,
2025-10-15T05:16:28.783989+00:00,4.595000,-0.039140,
2025-10-15T05:16:28.788989+00:00,4.600000,-0.031160,
2025-10-15T05:16:28.793989+00:00,4.605000,-0.026980,
2025-10-15T05:16:28.798989+00:00,4.610000,-0.036480,
2025-10-15T05:16:28.803989+00:00,4.615000,-0.050920,
2025-10-15T05:16:28.808989+00:00,4.620000,-0.050920,
2025-10-15T05:16:28.813989+00:00,4.625000,-0.036480,
2025-10-15T05:16:28.818989+00:00,4.630000,-0.030020,
2025-10-15T05:16:28.823989+00:00,4.635000,-0.041420,
2025-10-15T05:16:28.828989+00:00,4.640000,-0.056620,
2025-10-15T05:16:28.833989+00:00,4.645000,-0.057760,
2025-10-15T05:16:28.838989+00:00,4.650000,-0.047500,
2025-10-15T05:16:28.843989+00:00,4.655000,-0.037240,
2025-10-15T05:16:28.848989+00:00,4.660000,-0.033440,
2025-10-15T05:16:28.853989+00:00,4.665000,-0.037620,
2025-10-15T05:16:28.858989+00:00,4.670000,-0.042560,
2025-10-15T05:16:28.863989+00:00,4.675000,-0.038760,
2025-10-15T05:16:28.868989+00:00,4.680000,-0.027740,
2025-10-15T05:16:28.873989+00:00,4.685000,-0.015960,
2025-10-15T05:16:28.878989+00:00,4.690000,-0.011400,
2025-10-15T05:16:28.883989+00:00,4.695000,-0.013300,
2025-10-15T05:16:28.888989+00:00,4.700000,-0.018240,
2025-10-15T05:16:28.893989+00:00,4.705000,-0.021280,
2025-10-15T05:16:28.898989+00:00,4.710000,-0.022800,
2025-10-15T05:16:28.903989+00:00,4.715000,-0.022420,
2025-10-15T05:16:28.908989+00:00,4.720000,-0.023560,
2025-10-15T05:16:28.913989+00:00,4.725000,-0.028880,
2025-10-15T05:16:28.918989+00:00,4.730000,-0.035720,
2025-10-15T05:16:28.923989+00:00,4.735000,-0.043700,
2025-10-15T05:16:28.928989+00:00,4.740000,-0.042940,
2025-10-15T05:16:28.933989+00:00,4.745000,-0.038000,
2025-10-15T05:16:28.938989+00:00,4.750000,-0.036480,
2025-10-15T05:16:28.943989+00:00,4.755000,-0.041800,
2025-10-15T05:16:28.948989+00:00,4.760000,-0.050540,
2025-10-15T05:16:28.953989+00:00,4.765000,-0.056620,
2025-10-15T05:16:28.958989+00:00,4.770000,-0.053200,
2025-10-15T05:16:28.963989+00:00,4.775000,-0.047120,
2025-10-15T05:16:28.968989+00:00,4.780000,-0.049400,
2025-10-15T05:16:28.973989+00:00,4.785000,-0.057000,
2025-10-15T05:16:28.978989+00:00,4.790000,-0.057000,
2025-10-15T05:16:28.983989+00:00,4.795000,-0.053200,
2025-10-15T05:16:28.988989+00:00,4.800000,-0.053960,
2025-10-15T05:16:28.993989+00:00,4.805000,-0.051300,
2025-10-15T05:16:28.998989+00:00,4.810000,-0.040280,
2025-10-15T05:16:29.003989+00:00,4.815000,-0.033060,
2025-10-15T05:16:29.008989+00:00,4.820000,-0.036860,
2025-10-15T05:16:29.013989+00:00,4.825000,-0.043320,
2025-10-15T05:16:29.018989+00:00,4.830000,-0.045600,
2025-10-15T05:16:29.023989+00:00,4.835000,-0.043320,
2025-10-15T05:16:29.028989+00:00,4.840000,-0.041420,
2025-10-15T05:16:29.033989+00:00,4.845000,-0.044840,
2025-10-15T05:16:29.038989+00:00,4.850000,-0.048260,
2025-10-15T05:16:29.043989+00:00,4.855000,-0.044080,
2025-10-15T05:16:29.048989+00:00,4.860000,-0.035720,
2025-10-15T05:16:29.053989+00:00,4.865000,-0.033440,
2025-10-15T05:16:29.058989+00:00,4.870000,-0.032300,
2025-10-15T05:16:29.063989+00:00,4.875000,-0.030020,
2025-10-15T05:16:29.068989+00:00,4.880000,-0.031160,
2025-10-15T05:16:29.073989+00:00,4.885000,-0.034580,
2025-10-15T05:16:29.078989+00:00,4.890000,-0.039900,
2025-10-15T05:16:29.083989+00:00,4.895000,-0.046360,
2025-10-15T05:16:29.088989+00:00,4.900000,-0.049780,
2025-10-15T05:16:29.093989+00:00,4.905000,-0.048260,
2025-10-15T05:16:29.098989+00:00,4.910000,-0.046360,
2025-10-15T05:16:29.103989+00:00,4.915000,-0.045600,
2025-10-15T05:16:29.108989+00:00,4.920000,-0.047120,
2025-10-15T05:16:29.113989+00:00,4.925000,-0.048260,
2025-10-15T05:16:29.118989+00:00,4.930000,-0.046360,
2025-10-15T05:16:29.123989+00:00,4.935000,-0.040280,
2025-10-15T05:16:29.128989+00:00,4.940000,-0.034580,
2025-10-15T05:16:29.133989+00:00,4.945000,-0.033060,
2025-10-15T05:16:29.138989+00:00,4.950000,-0.035720,
2025-10-15T05:16:29.143989+00:00,4.955000,-0.043700,
2025-10-15T05:16:29.148989+00:00,4.960000,-0.053580,
2025-10-15T05:16:29.153989+00:00,4.965000,-0.064980,
2025-10-15T05:16:29.158989+00:00,4.970000,-0.066500,
2025-10-15T05:16:29.163989+00:00,4.975000,-0.050540,
2025-10-15T05:16:29.168989+00:00,4.980000,-0.030020,
2025-10-15T05:16:29.173989+00:00,4.985000,-0.023180,
2025-10-15T05:16:29.178989+00:00,4.990000,-0.026220,
2025-10-15T05:16:29.183989+00:00,4.995000,-0.026600,
2025-10-15T05:16:29.188989+00:00,5.000000,-0.017100,
2025-10-15T05:16:29.193989+00:00,5.005000,-0.006460,
2025-10-15T05:16:29.198989+00:00,5.010000,-0.005320,
2025-10-15T05:16:29.203989+00:00,5.015000,-0.014820,
2025-10-15T05:16:29.208989+00:00,5.020000,-0.025460,
2025-10-15T05:16:29.213989+00:00,5.025000,-0.027740,
2025-10-15T05:16:29.218989+00:00,5.030000,-0.025460,
2025-10-15T05:16:29.223989+00:00,5.035000,-0.024700,
2025-10-15T05:16:29.228989+00:00,5.040000,-0.029640,
2025-10-15T05:16:29.233989+00:00,5.045000,-0.039900,
2025-10-15T05:16:29.238989+00:00,5.050000,-0.048260,
2025-10-15T05:16:29.243989+00:00,5.055000,-0.043700,
2025-10-15T05:16:29.248989+00:00,5.060000,-0.026220,
2025-10-15T05:16:29.253989+00:00,5.065000,-0.012160,
2025-10-15T05:16:29.258989+00:00,5.070000,-0.010260,
2025-10-15T05:16:29.263989+00:00,5.075000,-0.015580,
2025-10-15T05:16:29.268989+00:00,5.080000,-0.023940,
2025-10-15T05:16:29.273989+00:00,5.085000,-0.025840,
2025-10-15T05:16:29.278989+00:00,5.090000,-0.020900,
2025-10-15T05:16:29.283989+00:00,5.095000,-0.018620,
2025-10-15T05:16:29.288989+00:00,5.100000,-0.020520,
2025-10-15T05:16:29.293989+00:00,5.105000,-0.018620,
2025-10-15T05:16:29.298989+00:00,5.110000,-0.012540,
2025-10-15T05:16:29.303989+00:00,5.115000,-0.016720,
2025-10-15T05:16:29.308989+00:00,5.120000,-0.031920,
2025-10-15T05:16:29.313989+00:00,5.125000,-0.046360,
2025-10-15T05:16:29.318989+00:00,5.130000,-0.046740,
2025-10-15T05:16:29.323989+00:00,5.135000,-0.034200,
2025-10-15T05:16:29.328989+00:00,5.140000,-0.023940,
2025-10-15T05:16:29.333989+00:00,5.145000,-0.031160,
2025-10-15T05:16:29.338989+00:00,5.150000,-0.044840,
2025-10-15T05:16:29.343989+00:00,5.155000,-0.048260,
2025-10-15T05:16:29.348989+00:00,5.160000,-0.043320,
2025-10-15T05:16:29.353989+00:00,5.165000,-0.044460,
2025-10-15T05:16:29.358989+00:00,5.170000,-0.054340,
2025-10-15T05:16:29.363989+00:00,5.175000,-0.056240,
2025-10-15T05:16:29.368989+00:00,5.180000,-0.048260,
2025-10-15T05:16:29.373989+00:00,5.185000,-0.040660,
2025-10-15T05:16:29.378989+00:00,5.190000,-0.040280,
2025-10-15T05:16:29.383989+00:00,5.195000,-0.039140,
2025-10-15T05:16:29.388989+00:00,5.200000,-0.029260,
2025-10-15T05:16:29.393989+00:00,5.205000,-0.019760,
2025-10-15T05:16:29.398989+00:00,5.210000,-0.018240,
2025-10-15T05:16:29.403989+00:00,5.215000,-0.026220,
2025-10-15T05:16:29.408989+00:00,5.220000,-0.035340,
2025-10-15T05:16:29.413989+00:00,5.225000,-0.038380,
2025-10-15T05:16:29.418989+00:00,5.230000,-0.038760,
2025-10-15T05:16:29.423989+00:00,5.235000,-0.040660,
2025-10-15T05:16:29.428989+00:00,5.240000,-0.042560,
2025-10-15T05:16:29.433989+00:00,5.245000,-0.036480,
2025-10-15T05:16:29.438989+00:00,5.250000,-0.025840,
2025-10-15T05:16:29.443989+00:00,5.255000,-0.012160,
2025-10-15T05:16:29.448989+00:00,5.260000,-0.006080,
2025-10-15T05:16:29.453989+00:00,5.265000,-0.022420,
2025-10-15T05:16:29.458989+00:00,5.270000,-0.044840,
2025-10-15T05:16:29.463989+00:00,5.275000,-0.051680,
2025-10-15T05:16:29.468989+00:00,5.280000,-0.044460,
2025-10-15T05:16:29.473989+00:00,5.285000,-0.039140,
2025-10-15T05:16:29.478989+00:00,5.290000,-0.044840,
2025-10-15T05:16:29.483989+00:00,5.295000,-0.052440,
2025-10-15T05:16:29.488989+00:00,5.300000,-0.047500,
2025-10-15T05:16:29.493989+00:00,5.305000,-0.030400,
2025-10-15T05:16:29.498989+00:00,5.310000,-0.023180,
2025-10-15T05:16:29.503989+00:00,5.315000,-0.039520,
2025-10-15T05:16:29.508989+00:00,5.320000,-0.066500,
2025-10-15T05:16:29.513989+00:00,5.325000,-0.079420,
2025-10-15T05:16:29.518989+00:00,5.330000,-0.068020,
2025-10-15T05:16:29.523989+00:00,5.335000,-0.048640,
2025-10-15T05:16:29.528989+00:00,5.340000,-0.041040,
2025-10-15T05:16:29.533989+00:00,5.345000,-0.046360,
2025-10-15T05:16:29.538989+00:00,5.350000,-0.053580,
2025-10-15T05:16:29.543989+00:00,5.355000,-0.061560,
2025-10-15T05:16:29.548989+00:00,5.360000,-0.068400,
2025-10-15T05:16:29.553989+00:00,5.365000,-0.068400,
2025-10-15T05:16:29.558989+00:00,5.370000,-0.058520,
2025-10-15T05:16:29.563989+00:00,5.375000,-0.046740,
2025-10-15T05:16:29.568989+00:00,5.380000,-0.038760,
2025-10-15T05:16:29.573989+00:00,5.385000,-0.034960,
2025-10-15T05:16:29.578989+00:00,5.390000,-0.037240,
2025-10-15T05:16:29.583989+00:00,5.395000,-0.046740,
2025-10-15T05:16:29.588989+00:00,5.400000,-0.057000,
2025-10-15T05:16:29.593989+00:00,5.405000,-0.057000,
2025-10-15T05:16:29.598989+00:00,5.410000,-0.039900,
2025-10-15T05:16:29.603989+00:00,5.415000,-0.019760,
2025-10-15T05:16:29.608989+00:00,5.420000,-0.008360,
2025-10-15T05:16:29.613989+00:00,5.425000,-0.005700,
2025-10-15T05:16:29.618989+00:00,5.430000,-0.017480,
2025-10-15T05:16:29.623989+00:00,5.435000,-0.041800,
2025-10-15T05:16:29.628989+00:00,5.440000,-0.060800,
2025-10-15T05:16:29.633989+00:00,5.445000,-0.054720,
2025-10-15T05:16:29.638989+00:00,5.450000,-0.036860,
2025-10-15T05:16:29.643989+00:00,5.455000,-0.033440,
2025-10-15T05:16:29.648989+00:00,5.460000,-0.052060,
2025-10-15T05:16:29.653989+00:00,5.465000,-0.071820,
2025-10-15T05:16:29.658989+00:00,5.470000,-0.076000,
2025-10-15T05:16:29.663989+00:00,5.475000,-0.064600,
2025-10-15T05:16:29.668989+00:00,5.480000,-0.050920,
2025-10-15T05:16:29.673989+00:00,5.485000,-0.039520,
2025-10-15T05:16:29.678989+00:00,5.490000,-0.033440,
2025-10-15T05:16:29.683989+00:00,5.495000,-0.032680,
2025-10-15T05:16:29.688989+00:00,5.500000,-0.037240,
2025-10-15T05:16:29.693989+00:00,5.505000,-0.032300,
2025-10-15T05:16:29.698989+00:00,5.510000,-0.018240,
2025-10-15T05:16:29.703989+00:00,5.515000,-0.004560,
2025-10-15T05:16:29.708989+00:00,5.520000,0.000000,
2025-10-15T05:16:29.713989+00:00,5.525000,-0.006080,
2025-10-15T05:16:29.718989+00:00,5.530000,-0.018240,
2025-10-15T05:16:29.723989+00:00,5.535000,-0.026220,
2025-10-15T05:16:29.728989+00:00,5.540000,-0.020520,
2025-10-15T05:16:29.733989+00:00,5.545000,-0.007980,
2025-10-15T05:16:29.738989+00:00,5.550000,-0.009500,
2025-10-15T05:16:29.743989+00:00,5.555000,-0.023180,
2025-10-15T05:16:29.748989+00:00,5.560000,-0.027360,
2025-10-15T05:16:29.753989+00:00,5.565000,-0.017100,
2025-10-15T05:16:29.758989+00:00,5.570000,-0.011400,
2025-10-15T05:16:29.763989+00:00,5.575000,-0.023940,
2025-10-15T05:16:29.768989+00:00,5.580000,-0.042560,
2025-10-15T05:16:29.773989+00:00,5.585000,-0.043700,
2025-10-15T05:16:29.778989+00:00,5.590000,-0.032300,
2025-10-15T05:16:29.783989+00:00,5.595000,-0.026980,
2025-10-15T05:16:29.788989+00:00,5.600000,-0.033060,
2025-10-15T05:16:29.793989+00:00,5.605000,-0.038760,
2025-10-15T05:16:29.798989+00:00,5.610000,-0.039520,
2025-10-15T05:16:29.803989+00:00,5.615000,-0.038760,
2025-10-15T05:16:29.808989+00:00,5.620000,-0.036860,
2025-10-15T05:16:29.813989+00:00,5.625000,-0.029640,
2025-10-15T05:16:29.818989+00:00,5.630000,-0.023940,
2025-10-15T05:16:29.823989+00:00,5.635000,-0.028500,
2025-10-15T05:16:29.828989+00:00,5.640000,-0.039140,
2025-10-15T05:16:29.833989+00:00,5.645000,-0.045600,
2025-10-15T05:16:29.838989+00:00,5.650000,-0.044080,
2025-10-15T05:16:29.843989+00:00,5.655000,-0.035340,
2025-10-15T05:16:29.848989+00:00,5.660000,-0.034960,
2025-10-15T05:16:29.853989+00:00,5.665000,-0.044460,
2025-10-15T05:16:29.858989+00:00,5.670000,-0.053960,
2025-10-15T05:16:29.863989+00:00,5.675000,-0.051680,
2025-10-15T05:16:29.868989+00:00,5.680000,-0.042180,
2025-10-15T05:16:29.873989+00:00,5.685000,-0.031160,
2025-10-15T05:16:29.878989+00:00,5.690000,-0.026220,
2025-10-15T05:16:29.883989+00:00,5.695000,-0.028880,
2025-10-15T05:16:29.888989+00:00,5.700000,-0.033060,
2025-10-15T05:16:29.893989+00:00,5.705000,-0.036860,
2025-10-15T05:16:29.898989+00:00,5.710000,-0.037240,
2025-10-15T05:16:29.903989+00:00,5.715000,-0.038760,
2025-10-15T05:16:29.908989+00:00,5.720000,-0.036860,
2025-10-15T05:16:29.913989+00:00,5.725000,-0.031540,
2025-10-15T05:16:29.918989+00:00,5.730000,-0.029260,
2025-10-15T05:16:29.923989+00:00,5.735000,-0.038000,
2025-10-15T05:16:29.928989+00:00,5.740000,-0.047500,
2025-10-15T05:16:29.933989+00:00,5.745000,-0.046360,
2025-10-15T05:16:29.938989+00:00,5.750000,-0.032300,
2025-10-15T05:16:29.943989+00:00,5.755000,-0.023940,
2025-10-15T05:16:29.948989+00:00,5.760000,-0.028880,
2025-10-15T05:16:29.953989+00:00,5.765000,-0.035340,
2025-10-15T05:16:29.958989+00:00,5.770000,-0.034580,
2025-10-15T05:16:29.963989+00:00,5.775000,-0.033060,
2025-10-15T05:16:29.968989+00:00,5.780000,-0.037240,
2025-10-15T05:16:29.973989+00:00,5.785000,-0.040280,
2025-10-15T05:16:29.978989+00:00,5.790000,-0.036860,
2025-10-15T05:16:29.983989+00:00,5.795000,-0.032680,
2025-10-15T05:16:29.988989+00:00,5.800000,-0.036100,
2025-10-15T05:16:29.993989+00:00,5.805000,-0.038000,
2025-10-15T05:16:29.998989+00:00,5.810000,-0.035340,
2025-10-15T05:16:30.003989+00:00,5.815000,-0.033820,
2025-10-15T05:16:30.008989+00:00,5.820000,-0.040280,
2025-10-15T05:16:30.013989+00:00,5.825000,-0.045600,
2025-10-15T05:16:30.018989+00:00,5.830000,-0.047500,
2025-10-15T05:16:30.023989+00:00,5.835000,-0.050540,
2025-10-15T05:16:30.028989+00:00,5.840000,-0.055480,
2025-10-15T05:16:30.033989+00:00,5.845000,-0.050920,
2025-10-15T05:16:30.038989+00:00,5.850000,-0.033820,
2025-10-15T05:16:30.043989+00:00,5.855000,-0.020140,
2025-10-15T05:16:30.048989+00:00,5.860000,-0.021660,
2025-10-15T05:16:30.053989+00:00,5.865000,-0.031540,
2025-10-15T05:16:30.058989+00:00,5.870000,-0.034580,
2025-10-15T05:16:30.063989+00:00,5.875000,-0.029260,
2025-10-15T05:16:30.068989+00:00,5.880000,-0.024700,
2025-10-15T05:16:30.073989+00:00,5.885000,-0.027360,
2025-10-15T05:16:30.078989+00:00,5.890000,-0.034960,
2025-10-15T05:16:30.083989+00:00,5.895000,-0.047120,
2025-10-15T05:16:30.088989+00:00,5.900000,-0.056240,
2025-10-15T05:16:30.093989+00:00,5.905000,-0.049400,
2025-10-15T05:16:30.098989+00:00,5.910000,-0.033060,
2025-10-15T05:16:30.103989+00:00,5.915000,-0.026980,
2025-10-15T05:16:30.108989+00:00,5.920000,-0.037620,
2025-10-15T05:16:30.113989+00:00,5.925000,-0.046360,
2025-10-15T05:16:30.118989+00:00,5.930000,-0.044080,
2025-10-15T05:16:30.123989+00:00,5.935000,-0.033440,
2025-10-15T05:16:30.128989+00:00,5.940000,-0.037240,
2025-10-15T05:16:30.133989+00:00,5.945000,-0.055860,
2025-10-15T05:16:30.138989+00:00,5.950000,-0.068020,
2025-10-15T05:16:30.143989+00:00,5.955000,-0.056240,
2025-10-15T05:16:30.148989+00:00,5.960000,-0.039140,
2025-10-15T05:16:30.153989+00:00,5.965000,-0.038000,
2025-10-15T05:16:30.158989+00:00,5.970000,-0.048640,
2025-10-15T05:16:30.163989+00:00,5.975000,-0.052060,
2025-10-15T05:16:30.168989+00:00,5.980000,-0.047880,
2025-10-15T05:16:30.173989+00:00,5.985000,-0.043700,
2025-10-15T05:16:30.178989+00:00,5.990000,-0.044460,
2025-10-15T05:16:30.183989+00:00,5.995000,-0.046360,
2025-10-15T05:16:30.188989+00:00,6.000000,-0.048260,
2025-10-15T05:16:30.193989+00:00,6.005000,-0.047120,
2025-10-15T05:16:30.198989+00:00,6.010000,-0.044460,
2025-10-15T05:16:30.203989+00:00,6.015000,-0.045600,
2025-10-15T05:16:30.208989+00:00,6.020000,-0.051300,
2025-10-15T05:16:30.213989+00:00,6.025000,-0.057760,
2025-10-15T05:16:30.218989+00:00,6.030000,-0.057380,
2025-10-15T05:16:30.223989+00:00,6.035000,-0.047880,
2025-10-15T05:16:30.228989+00:00,6.040000,-0.035340,
2025-10-15T05:16:30.233989+00:00,6.045000,-0.030020,
2025-10-15T05:16:30.238989+00:00,6.050000,-0.035340,
2025-10-15T05:16:30.243989+00:00,6.055000,-0.041800,
2025-10-15T05:16:30.248989+00:00,6.060000,-0.045220,
2025-10-15T05:16:30.253989+00:00,6.065000,-0.049020,
2025-10-15T05:16:30.258989+00:00,6.070000,-0.051300,
2025-10-15T05:16:30.263989+00:00,6.075000,-0.046740,
2025-10-15T05:16:30.268989+00:00,6.080000,-0.036860,
2025-10-15T05:16:30.273989+00:00,6.085000,-0.028880,
2025-10-15T05:16:30.278989+00:00,6.090000,-0.033820,
2025-10-15T05:16:30.283989+00:00,6.095000,-0.044460,
2025-10-15T05:16:30.288989+00:00,6.100000,-0.050920,
2025-10-15T05:16:30.293989+00:00,6.105000,-0.044840,
2025-10-15T05:16:30.298989+00:00,6.110000,-0.038760,
2025-10-15T05:16:30.303989+00:00,6.115000,-0.041420,
2025-10-15T05:16:30.308989+00:00,6.120000,-0.045600,
2025-10-15T05:16:30.313989+00:00,6.125000,-0.042940,
2025-10-15T05:16:30.318989+00:00,6.130000,-0.037240,
2025-10-15T05:16:30.323989+00:00,6.135000,-0.036860,
2025-10-15T05:16:30.328989+00:00,6.140000,-0.041800,
2025-10-15T05:16:30.333989+00:00,6.145000,-0.046360,
2025-10-15T05:16:30.338989+00:00,6.150000,-0.048640,
2025-10-15T05:16:30.343989+00:00,6.155000,-0.044080,
2025-10-15T05:16:30.348989+00:00,6.160000,-0.041420,
2025-10-15T05:16:30.353989+00:00,6.165000,-0.047120,
2025-10-15T05:16:30.358989+00:00,6.170000,-0.058520,
2025-10-15T05:16:30.363989+00:00,6.175000,-0.061180,
2025-10-15T05:16:30.368989+00:00,6.180000,-0.061940,
2025-10-15T05:16:30.373989+00:00,6.185000,-0.065740,
2025-10-15T05:16:30.378989+00:00,6.190000,-0.068780,
2025-10-15T05:16:30.383989+00:00,6.195000,-0.058520,
2025-10-15T05:16:30.388989+00:00,6.200000,-0.045220,
2025-10-15T05:16:30.393989+00:00,6.205000,-0.041800,
2025-10-15T05:16:30.398989+00:00,6.210000,-0.050160,
2025-10-15T05:16:30.403989+00:00,6.215000,-0.052820,
2025-10-15T05:16:30.408989+00:00,6.220000,-0.046360,
2025-10-15T05:16:30.413989+00:00,6.225000,-0.042560,
2025-10-15T05:16:30.418989+00:00,6.230000,-0.048260,
2025-10-15T05:16:30.423989+00:00,6.235000,-0.052060,
2025-10-15T05:16:30.428989+00:00,6.240000,-0.044460,
2025-10-15T05:16:30.433989+00:00,6.245000,-0.035340,
2025-10-15T05:16:30.438989+00:00,6.250000,-0.036480,
2025-10-15T05:16:30.443989+00:00,6.255000,-0.041800,
2025-10-15T05:16:30.448989+00:00,6.260000,-0.044460,
2025-10-15T05:16:30.453989+00:00,6.265000,-0.044080,
2025-10-15T05:16:30.458989+00:00,6.270000,-0.038000,
2025-10-15T05:16:30.463989+00:00,6.275000,-0.027740,
2025-10-15T05:16:30.468989+00:00,6.280000,-0.030400,
2025-10-15T05:16:30.473989+00:00,6.285000,-0.044080,
2025-10-15T05:16:30.478989+00:00,6.290000,-0.053580,
2025-10-15T05:16:30.483989+00:00,6.295000,-0.045980,
2025-10-15T05:16:30.488989+00:00,6.300000,-0.035340,
2025-10-15T05:16:30.493989+00:00,6.305000,-0.035340,
2025-10-15T05:16:30.498989+00:00,6.310000,-0.045980,
2025-10-15T05:16:30.503989+00:00,6.315000,-0.053960,
2025-10-15T05:16:30.508989+00:00,6.320000,-0.052820,
2025-10-15T05:16:30.513989+00:00,6.325000,-0.045980,
2025-10-15T05:16:30.518989+00:00,6.330000,-0.043320,
2025-10-15T05:16:30.523989+00:00,6.335000,-0.040280,
2025-10-15T05:16:30.528989+00:00,6.340000,-0.034200,
2025-10-15T05:16:30.533989+00:00,6.345000,-0.032680,
2025-10-15T05:16:30.538989+00:00,6.350000,-0.038380,
2025-10-15T05:16:30.543989+00:00,6.355000,-0.042180,
2025-10-15T05:16:30.548989+00:00,6.360000,-0.037620,
2025-10-15T05:16:30.553989+00:00,6.365000,-0.036480,
2025-10-15T05:16:30.558989+00:00,6.370000,-0.043320,
2025-10-15T05:16:30.563989+00:00,6.375000,-0.047880,
2025-10-15T05:16:30.568989+00:00,6.380000,-0.044460,
2025-10-15T05:16:30.573989+00:00,6.385000,-0.034580,
2025-10-15T05:16:30.578989+00:00,6.390000,-0.031920,
2025-10-15T05:16:30.583989+00:00,6.395000,-0.035340,
2025-10-15T05:16:30.588989+00:00,6.400000,-0.033060,
2025-10-15T05:16:30.593989+00:00,6.405000,-0.022800,
2025-10-15T05:16:30.598989+00:00,6.410000,-0.017100,
2025-10-15T05:16:30.603989+00:00,6.415000,-0.024320,
2025-10-15T05:16:30.608989+00:00,6.420000,-0.034200,
2025-10-15T05:16:30.613989+00:00,6.425000,-0.037620,
2025-10-15T05:16:30.618989+00:00,6.430000,-0.041800,
2025-10-15T05:16:30.623989+00:00,6.435000,-0.049020,
2025-10-15T05:16:30.628989+00:00,6.440000,-0.051680,
2025-10-15T05:16:30.633989+00:00,6.445000,-0.048640,
2025-10-15T05:16:30.638989+00:00,6.450000,-0.041800,
2025-10-15T05:16:30.643989+00:00,6.455000,-0.035720,
2025-10-15T05:16:30.648989+00:00,6.460000,-0.039140,
2025-10-15T05:16:30.653989+00:00,6.465000,-0.045600,
2025-10-15T05:16:30.658989+00:00,6.470000,-0.049780,
2025-10-15T05:16:30.663989+00:00,6.475000,-0.044840,
2025-10-15T05:16:30.668989+00:00,6.480000,-0.036100,
2025-10-15T05:16:30.673989+00:00,6.485000,-0.028120,
2025-10-15T05:16:30.678989+00:00,6.490000,-0.022420,
2025-10-15T05:16:30.683989+00:00,6.495000,-0.024320,
2025-10-15T05:16:30.688989+00:00,6.500000,-0.033440,
2025-10-15T05:16:30.693989+00:00,6.505000,-0.039900,
2025-10-15T05:16:30.698989+00:00,6.510000,-0.038000,
2025-10-15T05:16:30.703989+00:00,6.515000,-0.032300,
2025-10-15T05:16:30.708989+00:00,6.520000,-0.033060,
2025-10-15T05:16:30.713989+00:00,6.525000,-0.039140,
2025-10-15T05:16:30.718989+00:00,6.530000,-0.038380,
2025-10-15T05:16:30.723989+00:00,6.535000,-0.028120,
2025-10-15T05:16:30.728989+00:00,6.540000,-0.014440,
2025-10-15T05:16:30.733989+00:00,6.545000,-0.009880,
2025-10-15T05:16:30.738989+00:00,6.550000,-0.013300,
2025-10-15T05:16:30.743989+00:00,6.555000,-0.018240,
2025-10-15T05:16:30.748989+00:00,6.560000,-0.022420,
2025-10-15T05:16:30.753989+00:00,6.565000,-0.031920,
2025-10-15T05:16:30.758989+00:00,6.570000,-0.038380,
2025-10-15T05:16:30.763989+00:00,6.575000,-0.034960,
2025-10-15T05:16:30.768989+00:00,6.580000,-0.025840,
2025-10-15T05:16:30.773989+00:00,6.585000,-0.023560,
2025-10-15T05:16:30.778989+00:00,6.590000,-0.029640,
2025-10-15T05:16:30.783989+00:00,6.595000,-0.035340,
2025-10-15T05:16:30.788989+00:00,6.600000,-0.035720,
2025-10-15T05:16:30.793989+00:00,6.605000,-0.036480,
2025-10-15T05:16:30.798989+00:00,6.610000,-0.042180,
2025-10-15T05:16:30.803989+00:00,6.615000,-0.049780,
2025-10-15T05:16:30.808989+00:00,6.620000,-0.044080,
2025-10-15T05:16:30.813989+00:00,6.625000,-0.029640,
2025-10-15T05:16:30.818989+00:00,6.630000,-0.024320,
2025-10-15T05:16:30.823989+00:00,6.635000,-0.030020,
2025-10-15T05:16:30.828989+00:00,6.640000,-0.036860,
2025-10-15T05:16:30.833989+00:00,6.645000,-0.038380,
2025-10-15T05:16:30.838989+00:00,6.650000,-0.033440,
2025-10-15T05:16:30.843989+00:00,6.655000,-0.026600,
2025-10-15T05:16:30.848989+00:00,6.660000,-0.023560,
2025-10-15T05:16:30.853989+00:00,6.665000,-0.031920,
2025-10-15T05:16:30.858989+00:00,6.670000,-0.049780,
2025-10-15T05:16:30.863989+00:00,6.675000,-0.068020,
2025-10-15T05:16:30.868989+00:00,6.680000,-0.074860,
2025-10-15T05:16:30.873989+00:00,6.685000,-0.066880,
2025-10-15T05:16:30.878989+00:00,6.690000,-0.055860,
2025-10-15T05:16:30.883989+00:00,6.695000,-0.053960,
2025-10-15T05:16:30.888989+00:00,6.700000,-0.063840,
2025-10-15T05:16:30.893989+00:00,6.705000,-0.073340,
2025-10-15T05:16:30.898989+00:00,6.710000,-0.069540,
2025-10-15T05:16:30.903989+00:00,6.715000,-0.057000,
2025-10-15T05:16:30.908989+00:00,6.720000,-0.045220,
2025-10-15T05:16:30.913989+00:00,6.725000,-0.039520,
2025-10-15T05:16:30.918989+00:00,6.730000,-0.034200,
2025-10-15T05:16:30.923989+00:00,6.735000,-0.033820,
2025-10-15T05:16:30.928989+00:00,6.740000,-0.037620,
2025-10-15T05:16:30.933989+00:00,6.745000,-0.042560,
2025-10-15T05:16:30.938989+00:00,6.750000,-0.044840,
2025-10-15T05:16:30.943989+00:00,6.755000,-0.042940,
2025-10-15T05:16:30.948989+00:00,6.760000,-0.042180,
2025-10-15T05:16:30.953989+00:00,6.765000,-0.047500,
2025-10-15T05:16:30.958989+00:00,6.770000,-0.056240,
2025-10-15T05:16:30.963989+00:00,6.775000,-0.057760,
2025-10-15T05:16:30.968989+00:00,6.780000,-0.051300,
2025-10-15T05:16:30.973989+00:00,6.785000,-0.040280,
2025-10-15T05:16:30.978989+00:00,6.790000,-0.032300,
2025-10-15T05:16:30.983989+00:00,6.795000,-0.034960,
2025-10-15T05:16:30.988989+00:00,6.800000,-0.044840,
2025-10-15T05:16:30.993989+00:00,6.805000,-0.048260,
2025-10-15T05:16:30.998989+00:00,6.810000,-0.040280,
2025-10-15T05:16:31.003989+00:00,6.815000,-0.031920,
2025-10-15T05:16:31.008989+00:00,6.820000,-0.036860,
2025-10-15T05:16:31.013989+00:00,6.825000,-0.050540,
2025-10-15T05:16:31.018989+00:00,6.830000,-0.062700,
2025-10-15T05:16:31.023989+00:00,6.835000,-0.060420,
2025-10-15T05:16:31.028989+00:00,6.840000,-0.047120,
2025-10-15T05:16:31.033989+00:00,6.845000,-0.036100,
2025-10-15T05:16:31.038989+00:00,6.850000,-0.033440,
2025-10-15T05:16:31.043989+00:00,6.855000,-0.034960,
2025-10-15T05:16:31.048989+00:00,6.860000,-0.038760,
2025-10-15T05:16:31.053989+00:00,6.865000,-0.041040,
2025-10-15T05:16:31.058989+00:00,6.870000,-0.035340,
2025-10-15T05:16:31.063989+00:00,6.875000,-0.027360,
2025-10-15T05:16:31.068989+00:00,6.880000,-0.024320,
2025-10-15T05:16:31.073989+00:00,6.885000,-0.032680,
2025-10-15T05:16:31.078989+00:00,6.890000,-0.040280,
2025-10-15T05:16:31.083989+00:00,6.895000,-0.038380,
2025-10-15T05:16:31.088989+00:00,6.900000,-0.029260,
2025-10-15T05:16:31.093989+00:00,6.905000,-0.022420,
2025-10-15T05:16:31.098989+00:00,6.910000,-0.026220,
2025-10-15T05:16:31.103989+00:00,6.915000,-0.034960,
2025-10-15T05:16:31.108989+00:00,6.920000,-0.038380,
2025-10-15T05:16:31.113989+00:00,6.925000,-0.036100,
2025-10-15T05:16:31.118989+00:00,6.930000,-0.032680,
2025-10-15T05:16:31.123989+00:00,6.935000,-0.032300,
2025-10-15T05:16:31.128989+00:00,6.940000,-0.031920,
2025-10-15T05:16:31.133989+00:00,6.945000,-0.031540,
2025-10-15T05:16:31.138989+00:00,6.950000,-0.037240,
2025-10-15T05:16:31.143989+00:00,6.955000,-0.047500,
2025-10-15T05:16:31.148989+00:00,6.960000,-0.052440,
2025-10-15T05:16:31.153989+00:00,6.965000,-0.052440,
2025-10-15T05:16:31.158989+00:00,6.970000,-0.049400,
2025-10-15T05:16:31.163989+00:00,6.975000,-0.045220,
2025-10-15T05:16:31.168989+00:00,6.980000,-0.039140,
2025-10-15T05:16:31.173989+00:00,6.985000,-0.028120,
2025-10-15T05:16:31.178989+00:00,6.990000,-0.016340,
2025-10-15T05:16:31.183989+00:00,6.995000,-0.017480,
2025-10-15T05:16:31.188989+00:00,7.000000,-0.031540,
2025-10-15T05:16:31.193989+00:00,7.005000,-0.040280,
2025-10-15T05:16:31.198989+00:00,7.010000,-0.037620,
2025-10-15T05:16:31.203989+00:00,7.015000,-0.035720,
2025-10-15T05:16:31.208989+00:00,7.020000,-0.042180,
2025-10-15T05:16:31.213989+00:00,7.025000,-0.049780,
2025-10-15T05:16:31.218989+00:00,7.030000,-0.047500,
2025-10-15T05:16:31.223989+00:00,7.035000,-0.042940,
2025-10-15T05:16:31.228989+00:00,7.040000,-0.040280,
2025-10-15T05:16:31.233989+00:00,7.045000,-0.047880,
2025-10-15T05:16:31.238989+00:00,7.050000,-0.054340,
2025-10-15T05:16:31.243989+00:00,7.055000,-0.050920,
2025-10-15T05:16:31.248989+00:00,7.060000,-0.044840,
2025-10-15T05:16:31.253989+00:00,7.065000,-0.045980,
2025-10-15T05:16:31.258989+00:00,7.070000,-0.049020,
2025-10-15T05:16:31.263989+00:00,7.075000,-0.052440,
2025-10-15T05:16:31.268989+00:00,7.080000,-0.059660,
2025-10-15T05:16:31.273989+00:00,7.085000,-0.063840,
2025-10-15T05:16:31.278989+00:00,7.090000,-0.063840,
2025-10-15T05:16:31.283989+00:00,7.095000,-0.062320,
2025-10-15T05:16:31.288989+00:00,7.100000,-0.055860,
2025-10-15T05:16:31.293989+00:00,7.105000,-0.047120,
2025-10-15T05:16:31.298989+00:00,7.110000,-0.042560,
2025-10-15T05:16:31.303989+00:00,7.115000,-0.046740,
2025-10-15T05:16:31.308989+00:00,7.120000,-0.052060,
2025-10-15T05:16:31.313989+00:00,7.125000,-0.048640,
2025-10-15T05:16:31.318989+00:00,7.130000,-0.040660,
2025-10-15T05:16:31.323989+00:00,7.135000,-0.033060,
2025-10-15T05:16:31.328989+00:00,7.140000,-0.031920,
2025-10-15T05:16:31.333989+00:00,7.145000,-0.036100,
2025-10-15T05:16:31.338989+00:00,7.150000,-0.041040,
2025-10-15T05:16:31.343989+00:00,7.155000,-0.047880,
2025-10-15T05:16:31.348989+00:00,7.160000,-0.054340,
2025-10-15T05:16:31.353989+00:00,7.165000,-0.052060,
2025-10-15T05:16:31.358989+00:00,7.170000,-0.045220,
2025-10-15T05:16:31.363989+00:00,7.175000,-0.041420,
2025-10-15T05:16:31.368989+00:00,7.180000,-0.044840,
2025-10-15T05:16:31.373989+00:00,7.185000,-0.048260,
2025-10-15T05:16:31.378989+00:00,7.190000,-0.048640,
2025-10-15T05:16:31.383989+00:00,7.195000,-0.045220,
2025-10-15T05:16:31.388989+00:00,7.200000,-0.041800,
2025-10-15T05:16:31.393989+00:00,7.205000,-0.039520,
2025-10-15T05:16:31.398989+00:00,7.210000,-0.041040,
2025-10-15T05:16:31.403989+00:00,7.215000,-0.042940,
2025-10-15T05:16:31.408989+00:00,7.220000,-0.044080,
2025-10-15T05:16:31.413989+00:00,7.225000,-0.039900,
2025-10-15T05:16:31.418989+00:00,7.230000,-0.040660,
2025-10-15T05:16:31.423989+00:00,7.235000,-0.049400,
2025-10-15T05:16:31.428989+00:00,7.240000,-0.052060,
2025-10-15T05:16:31.433989+00:00,7.245000,-0.044840,
2025-10-15T05:16:31.438989+00:00,7.250000,-0.031920,
2025-10-15T05:16:31.443989+00:00,7.255000,-0.023940,
2025-10-15T05:16:31.448989+00:00,7.260000,-0.029260,
2025-10-15T05:16:31.453989+00:00,7.265000,-0.042560,
2025-10-15T05:16:31.458989+00:00,7.270000,-0.047500,
2025-10-15T05:16:31.463989+00:00,7.275000,-0.043320,
2025-10-15T05:16:31.468989+00:00,7.280000,-0.043320,
2025-10-15T05:16:31.473989+00:00,7.285000,-0.053200,
2025-10-15T05:16:31.478989+00:00,7.290000,-0.060040,
2025-10-15T05:16:31.483989+00:00,7.295000,-0.052060,
2025-10-15T05:16:31.488989+00:00,7.300000,-0.038380,
2025-10-15T05:16:31.493989+00:00,7.305000,-0.033440,
2025-10-15T05:16:31.498989+00:00,7.310000,-0.041040,
2025-10-15T05:16:31.503989+00:00,7.315000,-0.046740,
2025-10-15T05:16:31.508989+00:00,7.320000,-0.042940,
2025-10-15T05:16:31.513989+00:00,7.325000,-0.035720,
2025-10-15T05:16:31.518989+00:00,7.330000,-0.035720,
2025-10-15T05:16:31.523989+00:00,7.335000,-0.038000,
2025-10-15T05:16:31.528989+00:00,7.340000,-0.040280,
2025-10-15T05:16:31.533989+00:00,7.345000,-0.041800,
2025-10-15T05:16:31.538989+00:00,7.350000,-0.043700,
2025-10-15T05:16:31.543989+00:00,7.355000,-0.041800,
2025-10-15T05:16:31.548989+00:00,7.360000,-0.039520,
2025-10-15T05:16:31.553989+00:00,7.365000,-0.036860,
2025-10-15T05:16:31.558989+00:00,7.370000,-0.032680,
2025-10-15T05:16:31.563989+00:00,7.375000,-0.029640,
2025-10-15T05:16:31.568989+00:00,7.380000,-0.028500,
2025-10-15T05:16:31.573989+00:00,7.385000,-0.026220,
2025-10-15T05:16:31.578989+00:00,7.390000,-0.024320,
2025-10-15T05:16:31.583989+00:00,7.395000,-0.026220,
2025-10-15T05:16:31.588989+00:00,7.400000,-0.027740,
2025-10-15T05:16:31.593989+00:00,7.405000,-0.024320,
2025-10-15T05:16:31.598989+00:00,7.410000,-0.017860,
2025-10-15T05:16:31.603989+00:00,7.415000,-0.015200,
2025-10-15T05:16:31.608989+00:00,7.420000,-0.025080,
2025-10-15T05:16:31.613989+00:00,7.425000,-0.041040,
2025-10-15T05:16:31.618989+00:00,7.430000,-0.052440,
2025-10-15T05:16:31.623989+00:00,7.435000,-0.053580,
2025-10-15T05:16:31.628989+00:00,7.440000,-0.048640,
2025-10-15T05:16:31.633989+00:00,7.445000,-0.049020,
2025-10-15T05:16:31.638989+00:00,7.450000,-0.053580,
2025-10-15T05:16:31.643989+00:00,7.455000,-0.054340,
2025-10-15T05:16:31.648989+00:00,7.460000,-0.050540,
2025-10-15T05:16:31.653989+00:00,7.465000,-0.045220,
2025-10-15T05:16:31.658989+00:00,7.470000,-0.041800,
2025-10-15T05:16:31.663989+00:00,7.475000,-0.036480,
2025-10-15T05:16:31.668989+00:00,7.480000,-0.035340,
2025-10-15T05:16:31.673989+00:00,7.485000,-0.040280,
2025-10-15T05:16:31.678989+00:00,7.490000,-0.044840,
2025-10-15T05:16:31.683989+00:00,7.495000,-0.045600,
2025-10-15T05:16:31.688989+00:00,7.500000,-0.044080,
2025-10-15T05:16:31.693989+00:00,7.505000,-0.045600,
2025-10-15T05:16:31.698989+00:00,7.510000,-0.052820,
2025-10-15T05:16:31.703989+00:00,7.515000,-0.060040,
2025-10-15T05:16:31.708989+00:00,7.520000,-0.061940,
2025-10-15T05:16:31.713989+00:00,7.525000,-0.060800,
2025-10-15T05:16:31.718989+00:00,7.530000,-0.055100,
2025-10-15T05:16:31.723989+00:00,7.535000,-0.049780,
2025-10-15T05:16:31.728989+00:00,7.540000,-0.050920,
2025-10-15T05:16:31.733989+00:00,7.545000,-0.057000,
2025-10-15T05:16:31.738989+00:00,7.550000,-0.060040,
2025-10-15T05:16:31.743989+00:00,7.555000,-0.054340,
2025-10-15T05:16:31.748989+00:00,7.560000,-0.045980,
2025-10-15T05:16:31.753989+00:00,7.565000,-0.042180,
2025-10-15T05:16:31.758989+00:00,7.570000,-0.039900,
2025-10-15T05:16:31.763989+00:00,7.575000,-0.035340,
2025-10-15T05:16:31.768989+00:00,7.580000,-0.035720,
2025-10-15T05:16:31.773989+00:00,7.585000,-0.040660,
2025-10-15T05:16:31.778989+00:00,7.590000,-0.041800,
2025-10-15T05:16:31.783989+00:00,7.595000,-0.034580,
2025-10-15T05:16:31.788989+00:00,7.600000,-0.027740,
2025-10-15T05:16:31.793989+00:00,7.605000,-0.023180,
2025-10-15T05:16:31.798989+00:00,7.610000,-0.023560,
2025-10-15T05:16:31.803989+00:00,7.615000,-0.028500,
2025-10-15T05:16:31.808989+00:00,7.620000,-0.042560,
2025-10-15T05:16:31.813989+00:00,7.625000,-0.056240,
2025-10-15T05:16:31.818989+00:00,7.630000,-0.059280,
2025-10-15T05:16:31.823989+00:00,7.635000,-0.050920,
2025-10-15T05:16:31.828989+00:00,7.640000,-0.038760,
2025-10-15T05:16:31.833989+00:00,7.645000,-0.035720,
2025-10-15T05:16:31.838989+00:00,7.650000,-0.040660,
2025-10-15T05:16:31.843989+00:00,7.655000,-0.037620,
2025-10-15T05:16:31.848989+00:00,7.660000,-0.026600,
2025-10-15T05:16:31.853989+00:00,7.665000,-0.019380,
2025-10-15T05:16:31.858989+00:00,7.670000,-0.021280,
2025-10-15T05:16:31.863989+00:00,7.675000,-0.025080,
2025-10-15T05:16:31.868989+00:00,7.680000,-0.033820,
2025-10-15T05:16:31.873989+00:00,7.685000,-0.042560,
2025-10-15T05:16:31.878989+00:00,7.690000,-0.045980,
2025-10-15T05:16:31.883989+00:00,7.695000,-0.045600,
2025-10-15T05:16:31.888989+00:00,7.700000,-0.042560,
2025-10-15T05:16:31.893989+00:00,7.705000,-0.040660,
2025-10-15T05:16:31.898989+00:00,7.710000,-0.045220,
2025-10-15T05:16:31.903989+00:00,7.715000,-0.047120,
2025-10-15T05:16:31.908989+00:00,7.720000,-0.047120,
2025-10-15T05:16:31.913989+00:00,7.725000,-0.055100,
2025-10-15T05:16:31.918989+00:00,7.730000,-0.067260,
2025-10-15T05:16:31.923989+00:00,7.735000,-0.068400,
2025-10-15T05:16:31.928989+00:00,7.740000,-0.053960,
2025-10-15T05:16:31.933989+00:00,7.745000,-0.039520,
2025-10-15T05:16:31.938989+00:00,7.750000,-0.040660,
2025-10-15T05:16:31.943989+00:00,7.755000,-0.047500,
2025-10-15T05:16:31.948989+00:00,7.760000,-0.046740,
2025-10-15T05:16:31.953989+00:00,7.765000,-0.036100,
2025-10-15T05:16:31.958989+00:00,7.770000,-0.028880,
2025-10-15T05:16:31.963989+00:00,7.775000,-0.034960,
2025-10-15T05:16:31.968989+00:00,7.780000,-0.046740,
2025-10-15T05:16:31.973989+00:00,7.785000,-0.052060,
2025-10-15T05:16:31.978989+00:00,7.790000,-0.049400,
2025-10-15T05:16:31.983989+00:00,7.795000,-0.049400,
2025-10-15T05:16:31.988989+00:00,7.800000,-0.052820,
2025-10-15T05:16:31.993989+00:00,7.805000,-0.048260,
2025-10-15T05:16:31.998989+00:00,7.810000,-0.037240,
2025-10-15T05:16:32.003989+00:00,7.815000,-0.026600,
2025-10-15T05:16:32.008989+00:00,7.820000,-0.027360,
2025-10-15T05:16:32.013989+00:00,7.825000,-0.038000,
2025-10-15T05:16:32.018989+00:00,7.830000,-0.047500,
2025-10-15T05:16:32.023989+00:00,7.835000,-0.048640,
2025-10-15T05:16:32.028989+00:00,7.840000,-0.045600,
2025-10-15T05:16:32.033989+00:00,7.845000,-0.043320,
2025-10-15T05:16:32.038989+00:00,7.850000,-0.039520,
2025-10-15T05:16:32.043989+00:00,7.855000,-0.030400,
2025-10-15T05:16:32.048989+00:00,7.860000,-0.024320,
2025-10-15T05:16:32.053989+00:00,7.865000,-0.029260,
2025-10-15T05:16:32.058989+00:00,7.870000,-0.038760,
2025-10-15T05:16:32.063989+00:00,7.875000,-0.040280,
2025-10-15T05:16:32.068989+00:00,7.880000,-0.031540,
2025-10-15T05:16:32.073989+00:00,7.885000,-0.023180,
2025-10-15T05:16:32.078989+00:00,7.890000,-0.020900,
2025-10-15T05:16:32.083989+00:00,7.895000,-0.022420,
2025-10-15T05:16:32.088989+00:00,7.900000,-0.029260,
2025-10-15T05:16:32.093989+00:00,7.905000,-0.039140,
2025-10-15T05:16:32.098989+00:00,7.910000,-0.047880,
2025-10-15T05:16:32.103989+00:00,7.915000,-0.048260,
2025-10-15T05:16:32.108989+00:00,7.920000,-0.040660,
2025-10-15T05:16:32.113989+00:00,7.925000,-0.034580,
2025-10-15T05:16:32.118989+00:00,7.930000,-0.032680,
2025-10-15T05:16:32.123989+00:00,7.935000,-0.025840,
2025-10-15T05:16:32.128989+00:00,7.940000,-0.013300,
2025-10-15T05:16:32.133989+00:00,7.945000,-0.008740,
2025-10-15T05:16:32.138989+00:00,7.950000,-0.019380,
2025-10-15T05:16:32.143989+00:00,7.955000,-0.031920,
2025-10-15T05:16:32.148989+00:00,7.960000,-0.035720,
2025-10-15T05:16:32.153989+00:00,7.965000,-0.033440,
2025-10-15T05:16:32.158989+00:00,7.970000,-0.032300,
2025-10-15T05:16:32.163989+00:00,7.975000,-0.034200,
2025-10-15T05:16:32.168989+00:00,7.980000,-0.037620,
2025-10-15T05:16:32.173989+00:00,7.985000,-0.039900,
2025-10-15T05:16:32.178989+00:00,7.990000,-0.043320,
2025-10-15T05:16:32.183989+00:00,7.995000,-0.048260,
2025-10-15T05:16:32.188989+00:00,8.000000,-0.051300,
2025-10-15T05:16:32.193989+00:00,8.005000,-0.048640,
2025-10-15T05:16:32.198989+00:00,8.010000,-0.043320,
2025-10-15T05:16:32.203989+00:00,8.015000,-0.036100,
2025-10-15T05:16:32.208989+00:00,8.020000,-0.031160,
2025-10-15T05:16:32.213989+00:00,8.025000,-0.028500,
2025-10-15T05:16:32.218989+00:00,8.030000,-0.028880,
2025-10-15T05:16:32.223989+00:00,8.035000,-0.028880,
2025-10-15T05:16:32.228989+00:00,8.040000,-0.027360,
2025-10-15T05:16:32.233989+00:00,8.045000,-0.025460,
2025-10-15T05:16:32.238989+00:00,8.050000,-0.030780,
2025-10-15T05:16:32.243989+00:00,8.055000,-0.038380,
2025-10-15T05:16:32.248989+00:00,8.060000,-0.041420,
2025-10-15T05:16:32.253989+00:00,8.065000,-0.042560,
2025-10-15T05:16:32.258989+00:00,8.070000,-0.045980,
2025-10-15T05:16:32.263989+00:00,8.075000,-0.047500,
2025-10-15T05:16:32.268989+00:00,8.080000,-0.050920,
2025-10-15T05:16:32.273989+00:00,8.085000,-0.052060,
2025-10-15T05:16:32.278989+00:00,8.090000,-0.044460,
2025-10-15T05:16:32.283989+00:00,8.095000,-0.031920,
2025-10-15T05:16:32.288989+00:00,8.100000,-0.025460,
2025-10-15T05:16:32.293989+00:00,8.105000,-0.026600,
2025-10-15T05:16:32.298989+00:00,8.110000,-0.032680,
2025-10-15T05:16:32.303989+00:00,8.115000,-0.045220,
2025-10-15T05:16:32.308989+00:00,8.120000,-0.049780,
2025-10-15T05:16:32.313989+00:00,8.125000,-0.046360,
2025-10-15T05:16:32.318989+00:00,8.130000,-0.042560,
2025-10-15T05:16:32.323989+00:00,8.135000,-0.037240,
2025-10-15T05:16:32.328989+00:00,8.140000,-0.031160,
2025-10-15T05:16:32.333989+00:00,8.145000,-0.033060,
2025-10-15T05:16:32.338989+00:00,8.150000,-0.041420,
2025-10-15T05:16:32.343989+00:00,8.155000,-0.045980,
2025-10-15T05:16:32.348989+00:00,8.160000,-0.042560,
2025-10-15T05:16:32.353989+00:00,8.165000,-0.035720,
2025-10-15T05:16:32.358989+00:00,8.170000,-0.030400,
2025-10-15T05:16:32.363989+00:00,8.175000,-0.033060,
2025-10-15T05:16:32.368989+00:00,8.180000,-0.038000,
2025-10-15T05:16:32.373989+00:00,8.185000,-0.033060,
2025-10-15T05:16:32.378989+00:00,8.190000,-0.019380,
2025-10-15T05:16:32.383989+00:00,8.195000,-0.015960,
2025-10-15T05:16:32.388989+00:00,8.200000,-0.025460,
2025-10-15T05:16:32.393989+00:00,8.205000,-0.037240,
2025-10-15T05:16:32.398989+00:00,8.210000,-0.041800,
2025-10-15T05:16:32.403989+00:00,8.215000,-0.033820,
2025-10-15T05:16:32.408989+00:00,8.220000,-0.024320,
2025-10-15T05:16:32.413989+00:00,8.225000,-0.023940,
2025-10-15T05:16:32.418989+00:00,8.230000,-0.028880,
2025-10-15T05:16:32.423989+00:00,8.235000,-0.030020,
2025-10-15T05:16:32.428989+00:00,8.240000,-0.028880,
2025-10-15T05:16:32.433989+00:00,8.245000,-0.033440,
2025-10-15T05:16:32.438989+00:00,8.250000,-0.042940,
2025-10-15T05:16:32.443989+00:00,8.255000,-0.052440,
2025-10-15T05:16:32.448989+00:00,8.260000,-0.055100,
2025-10-15T05:16:32.453989+00:00,8.265000,-0.060040,
2025-10-15T05:16:32.458989+00:00,8.270000,-0.067640,
2025-10-15T05:16:32.463989+00:00,8.275000,-0.071060,
2025-10-15T05:16:32.468989+00:00,8.280000,-0.064220,
2025-10-15T05:16:32.473989+00:00,8.285000,-0.050160,
2025-10-15T05:16:32.478989+00:00,8.290000,-0.038000,
2025-10-15T05:16:32.483989+00:00,8.295000,-0.041040,
2025-10-15T05:16:32.488989+00:00,8.300000,-0.052060,
2025-10-15T05:16:32.493989+00:00,8.305000,-0.053960,
2025-10-15T05:16:32.498989+00:00,8.310000,-0.039140,
2025-10-15T05:16:32.503989+00:00,8.315000,-0.028500,
2025-10-15T05:16:32.508989+00:00,8.320000,-0.033820,
2025-10-15T05:16:32.513989+00:00,8.325000,-0.045980,
2025-10-15T05:16:32.518989+00:00,8.330000,-0.050540,
2025-10-15T05:16:32.523989+00:00,8.335000,-0.047500,
2025-10-15T05:16:32.528989+00:00,8.340000,-0.044080,
2025-10-15T05:16:32.533989+00:00,8.345000,-0.043320,
2025-10-15T05:16:32.538989+00:00,8.350000,-0.039900,
2025-10-15T05:16:32.543989+00:00,8.355000,-0.033820,
2025-10-15T05:16:32.548989+00:00,8.360000,-0.036100,
2025-10-15T05:16:32.553989+00:00,8.365000,-0.047500,
2025-10-15T05:16:32.558989+00:00,8.370000,-0.053580,
2025-10-15T05:16:32.563989+00:00,8.375000,-0.048260,
2025-10-15T05:16:32.568989+00:00,8.380000,-0.042940,
2025-10-15T05:16:32.573989+00:00,8.385000,-0.045220,
2025-10-15T05:16:32.578989+00:00,8.390000,-0.047880,
2025-10-15T05:16:32.583989+00:00,8.395000,-0.046360,
2025-10-15T05:16:32.588989+00:00,8.400000,-0.044080,
2025-10-15T05:16:32.593989+00:00,8.405000,-0.044460,
2025-10-15T05:16:32.598989+00:00,8.410000,-0.042940,
2025-10-15T05:16:32.603989+00:00,8.415000,-0.037240,
2025-10-15T05:16:32.608989+00:00,8.420000,-0.026220,
2025-10-15T05:16:32.613989+00:00,8.425000,-0.017100,
2025-10-15T05:16:32.618989+00:00,8.430000,-0.016720,
2025-10-15T05:16:32.623989+00:00,8.435000,-0.023940,
2025-10-15T05:16:32.628989+00:00,8.440000,-0.030780,
2025-10-15T05:16:32.633989+00:00,8.445000,-0.037240,
2025-10-15T05:16:32.638989+00:00,8.450000,-0.037240,
2025-10-15T05:16:32.643989+00:00,8.455000,-0.030780,
2025-10-15T05:16:32.648989+00:00,8.460000,-0.028120,
2025-10-15T05:16:32.653989+00:00,8.465000,-0.033060,
2025-10-15T05:16:32.658989+00:00,8.470000,-0.040660,
2025-10-15T05:16:32.663989+00:00,8.475000,-0.045220,
2025-10-15T05:16:32.668989+00:00,8.480000,-0.047880,
2025-10-15T05:16:32.673989+00:00,8.485000,-0.050160,
2025-10-15T05:16:32.678989+00:00,8.490000,-0.050540,
2025-10-15T05:16:32.683989+00:00,8.495000,-0.049780,
2025-10-15T05:16:32.688989+00:00,8.500000,-0.043700,
2025-10-15T05:16:32.693989+00:00,8.505000,-0.034960,
2025-10-15T05:16:32.698989+00:00,8.510000,-0.031160,
2025-10-15T05:16:32.703989+00:00,8.515000,-0.036480,
2025-10-15T05:16:32.708989+00:00,8.520000,-0.042940,
2025-10-15T05:16:32.713989+00:00,8.525000,-0.037240,
2025-10-15T05:16:32.718989+00:00,8.530000,-0.026980,
2025-10-15T05:16:32.723989+00:00,8.535000,-0.020140,
2025-10-15T05:16:32.728989+00:00,8.540000,-0.017100,
2025-10-15T05:16:32.733989+00:00,8.545000,-0.015960,
2025-10-15T05:16:32.738989+00:00,8.550000,-0.014820,
2025-10-15T05:16:32.743989+00:00,8.555000,-0.021280,
2025-10-15T05:16:32.748989+00:00,8.560000,-0.036860,
2025-10-15T05:16:32.753989+00:00,8.565000,-0.050540,
2025-10-15T05:16:32.758989+00:00,8.570000,-0.054340,
2025-10-15T05:16:32.763989+00:00,8.575000,-0.055860,
2025-10-15T05:16:32.768989+00:00,8.580000,-0.062700,
2025-10-15T05:16:32.773989+00:00,8.585000,-0.063080,
2025-10-15T05:16:32.778989+00:00,8.590000,-0.052440,
2025-10-15T05:16:32.783989+00:00,8.595000,-0.037620,
2025-10-15T05:16:32.788989+00:00,8.600000,-0.033820,
2025-10-15T05:16:32.793989+00:00,8.605000,-0.041800,
2025-10-15T05:16:32.798989+00:00,8.610000,-0.048260,
2025-10-15T05:16:32.803989+00:00,8.615000,-0.044840,
2025-10-15T05:16:32.808989+00:00,8.620000,-0.036860,
2025-10-15T05:16:32.813989+00:00,8.625000,-0.035340,
2025-10-15T05:16:32.818989+00:00,8.630000,-0.046360,
2025-10-15T05:16:32.823989+00:00,8.635000,-0.058140,
2025-10-15T05:16:32.828989+00:00,8.640000,-0.064600,
2025-10-15T05:16:32.833989+00:00,8.645000,-0.070680,
2025-10-15T05:16:32.838989+00:00,8.650000,-0.078660,
2025-10-15T05:16:32.843989+00:00,8.655000,-0.082840,
2025-10-15T05:16:32.848989+00:00,8.660000,-0.079420,
2025-10-15T05:16:32.853989+00:00,8.665000,-0.071820,
2025-10-15T05:16:32.858989+00:00,8.670000,-0.062320,
2025-10-15T05:16:32.863989+00:00,8.675000,-0.051300,
2025-10-15T05:16:32.868989+00:00,8.680000,-0.042560,
2025-10-15T05:16:32.873989+00:00,8.685000,-0.045980,
2025-10-15T05:16:32.878989+00:00,8.690000,-0.055480,
2025-10-15T05:16:32.883989+00:00,8.695000,-0.063460,
2025-10-15T05:16:32.888989+00:00,8.700000,-0.061940,
2025-10-15T05:16:32.893989+00:00,8.705000,-0.059280,
2025-10-15T05:16:32.898989+00:00,8.710000,-0.061560,
2025-10-15T05:16:32.903989+00:00,8.715000,-0.066120,
2025-10-15T05:16:32.908989+00:00,8.720000,-0.061940,
2025-10-15T05:16:32.913989+00:00,8.725000,-0.053200,
2025-10-15T05:16:32.918989+00:00,8.730000,-0.049020,
2025-10-15T05:16:32.923989+00:00,8.735000,-0.050540,
2025-10-15T05:16:32.928989+00:00,8.740000,-0.048640,
2025-10-15T05:16:32.933989+00:00,8.745000,-0.044460,
2025-10-15T05:16:32.938989+00:00,8.750000,-0.048260,
2025-10-15T05:16:32.943989+00:00,8.755000,-0.054720,
2025-10-15T05:16:32.948989+00:00,8.760000,-0.054340,
2025-10-15T05:16:32.953989+00:00,8.765000,-0.046740,
2025-10-15T05:16:32.958989+00:00,8.770000,-0.041420,
2025-10-15T05:16:32.963989+00:00,8.775000,-0.042180,
2025-10-15T05:16:32.968989+00:00,8.780000,-0.042560,
2025-10-15T05:16:32.973989+00:00,8.785000,-0.038760,
2025-10-15T05:16:32.978989+00:00,8.790000,-0.038760,
2025-10-15T05:16:32.983989+00:00,8.795000,-0.052060,
2025-10-15T05:16:32.988989+00:00,8.800000,-0.062700,
2025-10-15T05:16:32.993989+00:00,8.805000,-0.055860,
2025-10-15T05:16:32.998989+00:00,8.810000,-0.042560,
2025-10-15T05:16:33.003989+00:00,8.815000,-0.038760,
2025-10-15T05:16:33.008989+00:00,8.820000,-0.042940,
2025-10-15T05:16:33.013989+00:00,8.825000,-0.045220,
2025-10-15T05:16:33.018989+00:00,8.830000,-0.043320,
2025-10-15T05:16:33.023989+00:00,8.835000,-0.044460,
2025-10-15T05:16:33.028989+00:00,8.840000,-0.048640,
2025-10-15T05:16:33.033989+00:00,8.845000,-0.048640,
2025-10-15T05:16:33.038989+00:00,8.850000,-0.044460,
2025-10-15T05:16:33.043989+00:00,8.855000,-0.036860,
2025-10-15T05:16:33.048989+00:00,8.860000,-0.032680,
2025-10-15T05:16:33.053989+00:00,8.865000,-0.030780,
2025-10-15T05:16:33.058989+00:00,8.870000,-0.031920,
2025-10-15T05:16:33.063989+00:00,8.875000,-0.032680,
2025-10-15T05:16:33.068989+00:00,8.880000,-0.030780,
2025-10-15T05:16:33.073989+00:00,8.885000,-0.026220,
2025-10-15T05:16:33.078989+00:00,8.890000,-0.030020,
2025-10-15T05:16:33.083989+00:00,8.895000,-0.042560,
2025-10-15T05:16:33.088989+00:00,8.900000,-0.050920,
2025-10-15T05:16:33.093989+00:00,8.905000,-0.042940,
2025-10-15T05:16:33.098989+00:00,8.910000,-0.034580,
2025-10-15T05:16:33.103989+00:00,8.915000,-0.042180,
2025-10-15T05:16:33.108989+00:00,8.920000,-0.057760,
2025-10-15T05:16:33.113989+00:00,8.925000,-0.057000,
2025-10-15T05:16:33.118989+00:00,8.930000,-0.042940,
2025-10-15T05:16:33.123989+00:00,8.935000,-0.035340,
2025-10-15T05:16:33.128989+00:00,8.940000,-0.045600,
2025-10-15T05:16:33.133989+00:00,8.945000,-0.058140,
2025-10-15T05:16:33.138989+00:00,8.950000,-0.058520,
2025-10-15T05:16:33.143989+00:00,8.955000,-0.044840,
2025-10-15T05:16:33.148989+00:00,8.960000,-0.033060,
2025-10-15T05:16:33.153989+00:00,8.965000,-0.029640,
2025-10-15T05:16:33.158989+00:00,8.970000,-0.033820,
2025-10-15T05:16:33.163989+00:00,8.975000,-0.036480,
2025-10-15T05:16:33.168989+00:00,8.980000,-0.036100,
2025-10-15T05:16:33.173989+00:00,8.985000,-0.031540,
2025-10-15T05:16:33.178989+00:00,8.990000,-0.030020,
2025-10-15T05:16:33.183989+00:00,8.995000,-0.033060,
2025-10-15T05:16:33.188989+00:00,9.000000,-0.036100,
2025-10-15T05:16:33.193989+00:00,9.005000,-0.031160,
2025-10-15T05:16:33.198989+00:00,9.010000,-0.019760,
2025-10-15T05:16:33.203989+00:00,9.015000,-0.017860,
2025-10-15T05:16:33.208989+00:00,9.020000,-0.031920,
2025-10-15T05:16:33.213989+00:00,9.025000,-0.047500,
2025-10-15T05:16:33.218989+00:00,9.030000,-0.048640,
2025-10-15T05:16:33.223989+00:00,9.035000,-0.034960,
2025-10-15T05:16:33.228989+00:00,9.040000,-0.022040,
2025-10-15T05:16:33.233989+00:00,9.045000,-0.026980,
2025-10-15T05:16:33.238989+00:00,9.050000,-0.048260,
2025-10-15T05:16:33.243989+00:00,9.055000,-0.065360,
2025-10-15T05:16:33.248989+00:00,9.060000,-0.063840,
2025-10-15T05:16:33.253989+00:00,9.065000,-0.050920,
2025-10-15T05:16:33.258989+00:00,9.070000,-0.038380,
2025-10-15T05:16:33.263989+00:00,9.075000,-0.036860,
2025-10-15T05:16:33.268989+00:00,9.080000,-0.045220,
2025-10-15T05:16:33.273989+00:00,9.085000,-0.048260,
2025-10-15T05:16:33.278989+00:00,9.090000,-0.037240,
2025-10-15T05:16:33.283989+00:00,9.095000,-0.026980,
2025-10-15T05:16:33.288989+00:00,9.100000,-0.031920,
2025-10-15T05:16:33.293989+00:00,9.105000,-0.042560,
2025-10-15T05:16:33.298989+00:00,9.110000,-0.048640,
2025-10-15T05:16:33.303989+00:00,9.115000,-0.048260,
2025-10-15T05:16:33.308989+00:00,9.120000,-0.047880,
2025-10-15T05:16:33.313989+00:00,9.125000,-0.045220,
2025-10-15T05:16:33.318989+00:00,9.130000,-0.036860,
2025-10-15T05:16:33.323989+00:00,9.135000,-0.026600,
2025-10-15T05:16:33.328989+00:00,9.140000,-0.027360,
2025-10-15T05:16:33.333989+00:00,9.145000,-0.040660,
2025-10-15T05:16:33.338989+00:00,9.150000,-0.048640,
2025-10-15T05:16:33.343989+00:00,9.155000,-0.042180,
2025-10-15T05:16:33.348989+00:00,9.160000,-0.033820,
2025-10-15T05:16:33.353989+00:00,9.165000,-0.042560,
2025-10-15T05:16:33.358989+00:00,9.170000,-0.056240,
2025-10-15T05:16:33.363989+00:00,9.175000,-0.056240,
2025-10-15T05:16:33.368989+00:00,9.180000,-0.039520,
2025-10-15T05:16:33.373989+00:00,9.185000,-0.024700,
2025-10-15T05:16:33.378989+00:00,9.190000,-0.028500,
2025-10-15T05:16:33.383989+00:00,9.195000,-0.045980,
2025-10-15T05:16:33.388989+00:00,9.200000,-0.054340,
2025-10-15T05:16:33.393989+00:00,9.205000,-0.045220,
2025-10-15T05:16:33.398989+00:00,9.210000,-0.035340,
2025-10-15T05:16:33.403989+00:00,9.215000,-0.036480,
2025-10-15T05:16:33.408989+00:00,9.220000,-0.042940,
2025-10-15T05:16:33.413989+00:00,9.225000,-0.043700,
2025-10-15T05:16:33.418989+00:00,9.230000,-0.036100,
2025-10-15T05:16:33.423989+00:00,9.235000,-0.026220,
2025-10-15T05:16:33.428989+00:00,9.240000,-0.019760,
2025-10-15T05:16:33.433989+00:00,9.245000,-0.021280,
2025-10-15T05:16:33.438989+00:00,9.250000,-0.024320,
2025-10-15T05:16:33.443989+00:00,9.255000,-0.022800,
2025-10-15T05:16:33.448989+00:00,9.260000,-0.023560,
2025-10-15T05:16:33.453989+00:00,9.265000,-0.032300,
2025-10-15T05:16:33.458989+00:00,9.270000,-0.038000,
2025-10-15T05:16:33.463989+00:00,9.275000,-0.029260,
2025-10-15T05:16:33.468989+00:00,9.280000,-0.011020,
2025-10-15T05:16:33.473989+00:00,9.285000,-0.000380,
2025-10-15T05:16:33.478989+00:00,9.290000,-0.006460,
2025-10-15T05:16:33.483989+00:00,9.295000,-0.023180,
2025-10-15T05:16:33.488989+00:00,9.300000,-0.032680,
2025-10-15T05:16:33.493989+00:00,9.305000,-0.030780,
2025-10-15T05:16:33.498989+00:00,9.310000,-0.028500,
2025-10-15T05:16:33.503989+00:00,9.315000,-0.031160,
2025-10-15T05:16:33.508989+00:00,9.320000,-0.028500,
2025-10-15T05:16:33.513989+00:00,9.325000,-0.020520,
2025-10-15T05:16:33.518989+00:00,9.330000,-0.013680,
2025-10-15T05:16:33.523989+00:00,9.335000,-0.015580,
2025-10-15T05:16:33.528989+00:00,9.340000,-0.024320,
2025-10-15T05:16:33.533989+00:00,9.345000,-0.040280,
2025-10-15T05:16:33.538989+00:00,9.350000,-0.047880,
2025-10-15T05:16:33.543989+00:00,9.355000,-0.045220,
2025-10-15T05:16:33.548989+00:00,9.360000,-0.039900,
2025-10-15T05:16:33.553989+00:00,9.365000,-0.040280,
2025-10-15T05:16:33.558989+00:00,9.370000,-0.044840,
2025-10-15T05:16:33.563989+00:00,9.375000,-0.047880,
2025-10-15T05:16:33.568989+00:00,9.380000,-0.049020,
2025-10-15T05:16:33.573989+00:00,9.385000,-0.042940,
2025-10-15T05:16:33.578989+00:00,9.390000,-0.031920,
2025-10-15T05:16:33.583989+00:00,9.395000,-0.023180,
2025-10-15T05:16:33.588989+00:00,9.400000,-0.025840,
2025-10-15T05:16:33.593989+00:00,9.405000,-0.040660,
2025-10-15T05:16:33.598989+00:00,9.410000,-0.056240,
2025-10-15T05:16:33.603989+00:00,9.415000,-0.057760,
2025-10-15T05:16:33.608989+00:00,9.420000,-0.054340,
2025-10-15T05:16:33.613989+00:00,9.425000,-0.052820,
2025-10-15T05:16:33.618989+00:00,9.430000,-0.050920,
2025-10-15T05:16:33.623989+00:00,9.435000,-0.042560,
2025-10-15T05:16:33.628989+00:00,9.440000,-0.036480,
2025-10-15T05:16:33.633989+00:00,9.445000,-0.037240,
2025-10-15T05:16:33.638989+00:00,9.450000,-0.045600,
2025-10-15T05:16:33.643989+00:00,9.455000,-0.047880,
2025-10-15T05:16:33.648989+00:00,9.460000,-0.043320,
2025-10-15T05:16:33.653989+00:00,9.465000,-0.040280,
2025-10-15T05:16:33.658989+00:00,9.470000,-0.042560,
2025-10-15T05:16:33.663989+00:00,9.475000,-0.039520,
2025-10-15T05:16:33.668989+00:00,9.480000,-0.038000,
2025-10-15T05:16:33.673989+00:00,9.485000,-0.042180,
2025-10-15T05:16:33.678989+00:00,9.490000,-0.048260,
2025-10-15T05:16:33.683989+00:00,9.495000,-0.046360,
2025-10-15T05:16:33.688989+00:00,9.500000,-0.035720,
2025-10-15T05:16:33.693989+00:00,9.505000,-0.028500,
2025-10-15T05:16:33.698989+00:00,9.510000,-0.036100,
2025-10-15T05:16:33.703989+00:00,9.515000,-0.047120,
2025-10-15T05:16:33.708989+00:00,9.520000,-0.049780,
2025-10-15T05:16:33.713989+00:00,9.525000,-0.042180,
2025-10-15T05:16:33.718989+00:00,9.530000,-0.038760,
2025-10-15T05:16:33.723989+00:00,9.535000,-0.038000,
2025-10-15T05:16:33.728989+00:00,9.540000,-0.031540,
2025-10-15T05:16:33.733989+00:00,9.545000,-0.020900,
2025-10-15T05:16:33.738989+00:00,9.550000,-0.024320,
2025-10-15T05:16:33.743989+00:00,9.555000,-0.046360,
2025-10-15T05:16:33.748989+00:00,9.560000,-0.071060,
2025-10-15T05:16:33.753989+00:00,9.565000,-0.080180,
2025-10-15T05:16:33.758989+00:00,9.570000,-0.068400,
2025-10-15T05:16:33.763989+00:00,9.575000,-0.055860,
2025-10-15T05:16:33.768989+00:00,9.580000,-0.055480,
2025-10-15T05:16:33.773989+00:00,9.585000,-0.059660,
2025-10-15T05:16:33.778989+00:00,9.590000,-0.053580,
2025-10-15T05:16:33.783989+00:00,9.595000,-0.041420,
2025-10-15T05:16:33.788989+00:00,9.600000,-0.032300,
2025-10-15T05:16:33.793989+00:00,9.605000,-0.034580,
2025-10-15T05:16:33.798989+00:00,9.610000,-0.043320,
2025-10-15T05:16:33.803989+00:00,9.615000,-0.048260,
2025-10-15T05:16:33.808989+00:00,9.620000,-0.042940,
2025-10-15T05:16:33.813989+00:00,9.625000,-0.031160,
2025-10-15T05:16:33.818989+00:00,9.630000,-0.023940,
2025-10-15T05:16:33.823989+00:00,9.635000,-0.024320,
2025-10-15T05:16:33.828989+00:00,9.640000,-0.026600,
2025-10-15T05:16:33.833989+00:00,9.645000,-0.031540,
2025-10-15T05:16:33.838989+00:00,9.650000,-0.036860,
2025-10-15T05:16:33.843989+00:00,9.655000,-0.041040,
2025-10-15T05:16:33.848989+00:00,9.660000,-0.039520,
2025-10-15T05:16:33.853989+00:00,9.665000,-0.036480,
2025-10-15T05:16:33.858989+00:00,9.670000,-0.031540,
2025-10-15T05:16:33.863989+00:00,9.675000,-0.026220,
2025-10-15T05:16:33.868989+00:00,9.680000,-0.025460,
2025-10-15T05:16:33.873989+00:00,9.685000,-0.028500,
2025-10-15T05:16:33.878989+00:00,9.690000,-0.042560,
2025-10-15T05:16:33.883989+00:00,9.695000,-0.058520,
2025-10-15T05:16:33.888989+00:00,9.700000,-0.059280,
2025-10-15T05:16:33.893989+00:00,9.705000,-0.042560,
2025-10-15T05:16:33.898989+00:00,9.710000,-0.028880,
2025-10-15T05:16:33.903989+00:00,9.715000,-0.028880,
2025-10-15T05:16:33.908989+00:00,9.720000,-0.034580,
2025-10-15T05:16:33.913989+00:00,9.725000,-0.041040,
2025-10-15T05:16:33.918989+00:00,9.730000,-0.041800,
2025-10-15T05:16:33.923989+00:00,9.735000,-0.040280,
2025-10-15T05:16:33.928989+00:00,9.740000,-0.040280,
2025-10-15T05:16:33.933989+00:00,9.745000,-0.043320,
2025-10-15T05:16:33.938989+00:00,9.750000,-0.049400,
2025-10-15T05:16:33.943989+00:00,9.755000,-0.055860,
2025-10-15T05:16:33.948989+00:00,9.760000,-0.060040,
2025-10-15T05:16:33.953989+00:00,9.765000,-0.059660,
2025-10-15T05:16:33.958989+00:00,9.770000,-0.055100,
2025-10-15T05:16:33.963989+00:00,9.775000,-0.048260,
2025-10-15T05:16:33.968989+00:00,9.780000,-0.046740,
2025-10-15T05:16:33.973989+00:00,9.785000,-0.045220,
2025-10-15T05:16:33.978989+00:00,9.790000,-0.036480,
2025-10-15T05:16:33.983989+00:00,9.795000,-0.028500,
2025-10-15T05:16:33.988989+00:00,9.800000,-0.029260,
2025-10-15T05:16:33.993989+00:00,9.805000,-0.037240,
2025-10-15T05:16:33.998989+00:00,9.810000,-0.043320,
2025-10-15T05:16:34.003989+00:00,9.815000,-0.048640,
2025-10-15T05:16:34.008989+00:00,9.820000,-0.058520,
2025-10-15T05:16:34.013989+00:00,9.825000,-0.063080,
2025-10-15T05:16:34.018989+00:00,9.830000,-0.055100,
2025-10-15T05:16:34.023989+00:00,9.835000,-0.039900,
2025-10-15T05:16:34.028989+00:00,9.840000,-0.029640,
2025-10-15T05:16:34.033989+00:00,9.845000,-0.029260,
2025-10-15T05:16:34.038989+00:00,9.850000,-0.031160,
2025-10-15T05:16:34.043989+00:00,9.855000,-0.030020,
2025-10-15T05:16:34.048989+00:00,9.860000,-0.028500,
2025-10-15T05:16:34.053989+00:00,9.865000,-0.028880,
2025-10-15T05:16:34.058989+00:00,9.870000,-0.030400,
2025-10-15T05:16:34.063989+00:00,9.875000,-0.035340,
2025-10-15T05:16:34.068989+00:00,9.880000,-0.042180,
2025-10-15T05:16:34.073989+00:00,9.885000,-0.047120,
2025-10-15T05:16:34.078989+00:00,9.890000,-0.046360,
2025-10-15T05:16:34.083989+00:00,9.895000,-0.046740,
2025-10-15T05:16:34.088989+00:00,9.900000,-0.052440,
2025-10-15T05:16:34.093989+00:00,9.905000,-0.058520,
2025-10-15T05:16:34.098989+00:00,9.910000,-0.062700,
2025-10-15T05:16:34.103989+00:00,9.915000,-0.061180,
2025-10-15T05:16:34.108989+00:00,9.920000,-0.049020,
2025-10-15T05:16:34.113989+00:00,9.925000,-0.033820,
2025-10-15T05:16:34.118989+00:00,9.930000,-0.028500,
2025-10-15T05:16:34.123989+00:00,9.935000,-0.031540,
2025-10-15T05:16:34.128989+00:00,9.940000,-0.030400,
2025-10-15T05:16:34.133989+00:00,9.945000,-0.024320,
2025-10-15T05:16:34.138989+00:00,9.950000,-0.026220,
2025-10-15T05:16:34.143989+00:00,9.955000,-0.035720,
2025-10-15T05:16:34.148989+00:00,9.960000,-0.042940,
2025-10-15T05:16:34.153989+00:00,9.965000,-0.043700,
2025-10-15T05:16:34.158989+00:00,9.970000,-0.040280,
2025-10-15T05:16:34.163989+00:00,9.975000,-0.036480,
2025-10-15T05:16:34.168989+00:00,9.980000,-0.029260,
2025-10-15T05:16:34.173989+00:00,9.985000,-0.025460,
2025-10-15T05:16:34.178989+00:00,9.990000,-0.037620,
2025-10-15T05:16:34.183989+00:00,9.995000,-0.054720,
2025-10-15T05:16:34.188989+00:00,10.000000,-0.054340,
2025-10-15T05:16:34.193989+00:00,10.005000,-0.037240,
2025-10-15T05:16:34.198989+00:00,10.010000,-0.025840,
2025-10-15T05:16:34.203989+00:00,10.015000,-0.029260,
2025-10-15T05:16:34.208989+00:00,10.020000,-0.028880,
2025-10-15T05:16:34.213989+00:00,10.025000,-0.023560,
2025-10-15T05:16:34.218989+00:00,10.030000,-0.025460,
2025-10-15T05:16:34.223989+00:00,10.035000,-0.033440,
2025-10-15T05:16:34.228989+00:00,10.040000,-0.033060,
2025-10-15T05:16:34.233989+00:00,10.045000,-0.028500,
2025-10-15T05:16:34.238989+00:00,10.050000,-0.032300,
2025-10-15T05:16:34.243989+00:00,10.055000,-0.043700,
2025-10-15T05:16:34.248989+00:00,10.060000,-0.054340,
2025-10-15T05:16:34.253989+00:00,10.065000,-0.060040,
2025-10-15T05:16:34.258989+00:00,10.070000,-0.061560,
2025-10-15T05:16:34.263989+00:00,10.075000,-0.060420,
2025-10-15T05:16:34.268989+00:00,10.080000,-0.050920,
2025-10-15T05:16:34.273989+00:00,10.085000,-0.040660,
2025-10-15T05:16:34.278989+00:00,10.090000,-0.042560,
2025-10-15T05:16:34.283989+00:00,10.095000,-0.049780,
2025-10-15T05:16:34.288989+00:00,10.100000,-0.050160,
2025-10-15T05:16:34.293989+00:00,10.105000,-0.047500,
2025-10-15T05:16:34.298989+00:00,10.110000,-0.058140,
2025-10-15T05:16:34.303989+00:00,10.115000,-0.074860,
2025-10-15T05:16:34.308989+00:00,10.120000,-0.073340,
2025-10-15T05:16:34.313989+00:00,10.125000,-0.049020,
2025-10-15T05:16:34.318989+00:00,10.130000,-0.026220,
2025-10-15T05:16:34.323989+00:00,10.135000,-0.025840,
2025-10-15T05:16:34.328989+00:00,10.140000,-0.042940,
2025-10-15T05:16:34.333989+00:00,10.145000,-0.049020,
2025-10-15T05:16:34.338989+00:00,10.150000,-0.034580,
2025-10-15T05:16:34.343989+00:00,10.155000,-0.017100,
2025-10-15T05:16:34.348989+00:00,10.160000,-0.013680,
2025-10-15T05:16:34.353989+00:00,10.165000,-0.022040,
2025-10-15T05:16:34.358989+00:00,10.170000,-0.028120,
2025-10-15T05:16:34.363989+00:00,10.175000,-0.030780,
2025-10-15T05:16:34.368989+00:00,10.180000,-0.040280,
2025-10-15T05:16:34.373989+00:00,10.185000,-0.050540,
2025-10-15T05:16:34.378989+00:00,10.190000,-0.050920,
2025-10-15T05:16:34.383989+00:00,10.195000,-0.046740,
2025-10-15T05:16:34.388989+00:00,10.200000,-0.047880,
2025-10-15T05:16:34.393989+00:00,10.205000,-0.053960,
2025-10-15T05:16:34.398989+00:00,10.210000,-0.057760,
2025-10-15T05:16:34.403989+00:00,10.215000,-0.052060,
2025-10-15T05:16:34.408989+00:00,10.220000,-0.039520,
2025-10-15T05:16:34.413989+00:00,10.225000,-0.030780,
2025-10-15T05:16:34.418989+00:00,10.230000,-0.033440,
2025-10-15T05:16:34.423989+00:00,10.235000,-0.045220,
2025-10-15T05:16:34.428989+00:00,10.240000,-0.053580,
2025-10-15T05:16:34.433989+00:00,10.245000,-0.054720,
2025-10-15T05:16:34.438989+00:00,10.250000,-0.055100,
2025-10-15T05:16:34.443989+00:00,10.255000,-0.059280,
2025-10-15T05:16:34.448989+00:00,10.260000,-0.062700,
2025-10-15T05:16:34.453989+00:00,10.265000,-0.058520,
2025-10-15T05:16:34.458989+00:00,10.270000,-0.046360,
2025-10-15T05:16:34.463989+00:00,10.275000,-0.032300,
2025-10-15T05:16:34.468989+00:00,10.280000,-0.022420,
2025-10-15T05:16:34.473989+00:00,10.285000,-0.017860,
2025-10-15T05:16:34.478989+00:00,10.290000,-0.019000,
2025-10-15T05:16:34.483989+00:00,10.295000,-0.025840,
2025-10-15T05:16:34.488989+00:00,10.300000,-0.030400,
2025-10-15T05:16:34.493989+00:00,10.305000,-0.029640,
2025-10-15T05:16:34.498989+00:00,10.310000,-0.029640,
2025-10-15T05:16:34.503989+00:00,10.315000,-0.032300,
2025-10-15T05:16:34.508989+00:00,10.320000,-0.030400,
2025-10-15T05:16:34.513989+00:00,10.325000,-0.022800,
2025-10-15T05:16:34.518989+00:00,10.330000,-0.018620,
2025-10-15T05:16:34.523989+00:00,10.335000,-0.018240,
2025-10-15T05:16:34.528989+00:00,10.340000,-0.019000,
2025-10-15T05:16:34.533989+00:00,10.345000,-0.024320,
2025-10-15T05:16:34.538989+00:00,10.350000,-0.033060,
2025-10-15T05:16:34.543989+00:00,10.355000,-0.037620,
2025-10-15T05:16:34.548989+00:00,10.360000,-0.033820,
2025-10-15T05:16:34.553989+00:00,10.365000,-0.029640,
2025-10-15T05:16:34.558989+00:00,10.370000,-0.034960,
2025-10-15T05:16:34.563989+00:00,10.375000,-0.043320,
2025-10-15T05:16:34.568989+00:00,10.380000,-0.044460,
2025-10-15T05:16:34.573989+00:00,10.385000,-0.042180,
2025-10-15T05:16:34.578989+00:00,10.390000,-0.041420,
2025-10-15T05:16:34.583989+00:00,10.395000,-0.041800,
2025-10-15T05:16:34.588989+00:00,10.400000,-0.041420,
2025-10-15T05:16:34.593989+00:00,10.405000,-0.046360,
2025-10-15T05:16:34.598989+00:00,10.410000,-0.056240,
2025-10-15T05:16:34.603989+00:00,10.415000,-0.062700,
2025-10-15T05:16:34.608989+00:00,10.420000,-0.059280,
2025-10-15T05:16:34.613989+00:00,10.425000,-0.045980,
2025-10-15T05:16:34.618989+00:00,10.430000,-0.029640,
2025-10-15T05:16:34.623989+00:00,10.435000,-0.019000,
2025-10-15T05:16:34.628989+00:00,10.440000,-0.020520,
2025-10-15T05:16:34.633989+00:00,10.445000,-0.038000,
2025-10-15T05:16:34.638989+00:00,10.450000,-0.062320,
2025-10-15T05:16:34.643989+00:00,10.455000,-0.067260,
2025-10-15T05:16:34.648989+00:00,10.460000,-0.045980,
2025-10-15T05:16:34.653989+00:00,10.465000,-0.025460,
2025-10-15T05:16:34.658989+00:00,10.470000,-0.026980,
2025-10-15T05:16:34.663989+00:00,10.475000,-0.041420,
2025-10-15T05:16:34.668989+00:00,10.480000,-0.046740,
2025-10-15T05:16:34.673989+00:00,10.485000,-0.032680,
2025-10-15T05:16:34.678989+00:00,10.490000,-0.019380,
2025-10-15T05:16:34.683989+00:00,10.495000,-0.026220,
2025-10-15T05:16:34.688989+00:00,10.500000,-0.040280,
2025-10-15T05:16:34.693989+00:00,10.505000,-0.041040,
2025-10-15T05:16:34.698989+00:00,10.510000,-0.030020,
2025-10-15T05:16:34.703989+00:00,10.515000,-0.026980,
2025-10-15T05:16:34.708989+00:00,10.520000,-0.031920,
2025-10-15T05:16:34.713989+00:00,10.525000,-0.041800,
2025-10-15T05:16:34.718989+00:00,10.530000,-0.049020,
2025-10-15T05:16:34.723989+00:00,10.535000,-0.044460,
2025-10-15T05:16:34.728989+00:00,10.540000,-0.029640,
2025-10-15T05:16:34.733989+00:00,10.545000,-0.020520,
2025-10-15T05:16:34.738989+00:00,10.550000,-0.023940,
2025-10-15T05:16:34.743989+00:00,10.555000,-0.034580,
2025-10-15T05:16:34.748989+00:00,10.560000,-0.049020,
2025-10-15T05:16:34.753989+00:00,10.565000,-0.062700,
2025-10-15T05:16:34.758989+00:00,10.570000,-0.071440,
2025-10-15T05:16:34.763989+00:00,10.575000,-0.069160,
2025-10-15T05:16:34.768989+00:00,10.580000,-0.059280,
2025-10-15T05:16:34.773989+00:00,10.585000,-0.053200,
2025-10-15T05:16:34.778989+00:00,10.590000,-0.057000,
2025-10-15T05:16:34.783989+00:00,10.595000,-0.063460,
2025-10-15T05:16:34.788989+00:00,10.600000,-0.062320,
2025-10-15T05:16:34.793989+00:00,10.605000,-0.055860,
2025-10-15T05:16:34.798989+00:00,10.610000,-0.053200,
2025-10-15T05:16:34.803989+00:00,10.615000,-0.049780,
2025-10-15T05:16:34.808989+00:00,10.620000,-0.036480,
2025-10-15T05:16:34.813989+00:00,10.625000,-0.020900,
2025-10-15T05:16:34.818989+00:00,10.630000,-0.013300,
2025-10-15T05:16:34.823989+00:00,10.635000,-0.013680,
2025-10-15T05:16:34.828989+00:00,10.640000,-0.017100,
2025-10-15T05:16:34.833989+00:00,10.645000,-0.022800,
2025-10-15T05:16:34.838989+00:00,10.650000,-0.032300,
2025-10-15T05:16:34.843989+00:00,10.655000,-0.039900,
2025-10-15T05:16:34.848989+00:00,10.660000,-0.042560,
2025-10-15T05:16:34.853989+00:00,10.665000,-0.045600,
2025-10-15T05:16:34.858989+00:00,10.670000,-0.049400,
2025-10-15T05:16:34.863989+00:00,10.675000,-0.045980,
2025-10-15T05:16:34.868989+00:00,10.680000,-0.036100,
2025-10-15T05:16:34.873989+00:00,10.685000,-0.027740,
2025-10-15T05:16:34.878989+00:00,10.690000,-0.031160,
2025-10-15T05:16:34.883989+00:00,10.695000,-0.043700,
2025-10-15T05:16:34.888989+00:00,10.700000,-0.050920,
2025-10-15T05:16:34.893989+00:00,10.705000,-0.041800,
2025-10-15T05:16:34.898989+00:00,10.710000,-0.031160,
2025-10-15T05:16:34.903989+00:00,10.715000,-0.029640,
2025-10-15T05:16:34.908989+00:00,10.720000,-0.031540,
2025-10-15T05:16:34.913989+00:00,10.725000,-0.030780,
2025-10-15T05:16:34.918989+00:00,10.730000,-0.037620,
2025-10-15T05:16:34.923989+00:00,10.735000,-0.045220,
2025-10-15T05:16:34.928989+00:00,10.740000,-0.041420,
2025-10-15T05:16:34.933989+00:00,10.745000,-0.021660,
2025-10-15T05:16:34.938989+00:00,10.750000,-0.005700,
2025-10-15T05:16:34.943989+00:00,10.755000,-0.006840,
2025-10-15T05:16:34.948989+00:00,10.760000,-0.023560,
2025-10-15T05:16:34.953989+00:00,10.765000,-0.032680,
2025-10-15T05:16:34.958989+00:00,10.770000,-0.032300,
2025-10-15T05:16:34.963989+00:00,10.775000,-0.034200,
2025-10-15T05:16:34.968989+00:00,10.780000,-0.047120,
2025-10-15T05:16:34.973989+00:00,10.785000,-0.055860,
2025-10-15T05:16:34.978989+00:00,10.790000,-0.056240,
2025-10-15T05:16:34.983989+00:00,10.795000,-0.054720,
2025-10-15T05:16:34.988989+00:00,10.800000,-0.054340,
2025-10-15T05:16:34.993989+00:00,10.805000,-0.050920,
2025-10-15T05:16:34.998989+00:00,10.810000,-0.036480,
2025-10-15T05:16:35.003989+00:00,10.815000,-0.019000,
2025-10-15T05:16:35.008989+00:00,10.820000,-0.014060,
2025-10-15T05:16:35.013989+00:00,10.825000,-0.026600,
2025-10-15T05:16:35.018989+00:00,10.830000,-0.037240,
2025-10-15T05:16:35.023989+00:00,10.835000,-0.034580,
2025-10-15T05:16:35.028989+00:00,10.840000,-0.023940,
2025-10-15T05:16:35.033989+00:00,10.845000,-0.022800,
2025-10-15T05:16:35.038989+00:00,10.850000,-0.032300,
2025-10-15T05:16:35.043989+00:00,10.855000,-0.038760,
2025-10-15T05:16:35.048989+00:00,10.860000,-0.033440,
2025-10-15T05:16:35.053989+00:00,10.865000,-0.025080,
2025-10-15T05:16:35.058989+00:00,10.870000,-0.025840,
2025-10-15T05:16:35.063989+00:00,10.875000,-0.032300,
2025-10-15T05:16:35.068989+00:00,10.880000,-0.035720,
2025-10-15T05:16:35.073989+00:00,10.885000,-0.030400,
2025-10-15T05:16:35.078989+00:00,10.890000,-0.017860,
2025-10-15T05:16:35.083989+00:00,10.895000,-0.012920,
2025-10-15T05:16:35.088989+00:00,10.900000,-0.019760,
2025-10-15T05:16:35.093989+00:00,10.905000,-0.031540,
2025-10-15T05:16:35.098989+00:00,10.910000,-0.040280,
2025-10-15T05:16:35.103989+00:00,10.915000,-0.047880,
2025-10-15T05:16:35.108989+00:00,10.920000,-0.048260,
2025-10-15T05:16:35.113989+00:00,10.925000,-0.043320,
2025-10-15T05:16:35.118989+00:00,10.930000,-0.034200,
2025-10-15T05:16:35.123989+00:00,10.935000,-0.028120,
2025-10-15T05:16:35.128989+00:00,10.940000,-0.024700,
2025-10-15T05:16:35.133989+00:00,10.945000,-0.026600,
2025-10-15T05:16:35.138989+00:00,10.950000,-0.026600,
2025-10-15T05:16:35.143989+00:00,10.955000,-0.024700,
2025-10-15T05:16:35.148989+00:00,10.960000,-0.029260,
2025-10-15T05:16:35.153989+00:00,10.965000,-0.037240,
2025-10-15T05:16:35.158989+00:00,10.970000,-0.041040,
2025-10-15T05:16:35.163989+00:00,10.975000,-0.041040,
2025-10-15T05:16:35.168989+00:00,10.980000,-0.045220,
2025-10-15T05:16:35.173989+00:00,10.985000,-0.052060,
2025-10-15T05:16:35.178989+00:00,10.990000,-0.049400,
2025-10-15T05:16:35.183989+00:00,10.995000,-0.038760,
2025-10-15T05:16:35.188989+00:00,11.000000,-0.033820,
2025-10-15T05:16:35.193989+00:00,11.005000,-0.039900,
2025-10-15T05:16:35.198989+00:00,11.010000,-0.047880,
2025-10-15T05:16:35.203989+00:00,11.015000,-0.047120,
2025-10-15T05:16:35.208989+00:00,11.020000,-0.037240,
2025-10-15T05:16:35.213989+00:00,11.025000,-0.031540,
2025-10-15T05:16:35.218989+00:00,11.030000,-0.036480,
2025-10-15T05:16:35.223989+00:00,11.035000,-0.042560,
2025-10-15T05:16:35.228989+00:00,11.040000,-0.042940,
2025-10-15T05:16:35.233989+00:00,11.045000,-0.038380,
2025-10-15T05:16:35.238989+00:00,11.050000,-0.028880,
2025-10-15T05:16:35.243989+00:00,11.055000,-0.022800,
2025-10-15T05:16:35.248989+00:00,11.060000,-0.025460,
2025-10-15T05:16:35.253989+00:00,11.065000,-0.031920,
2025-10-15T05:16:35.258989+00:00,11.070000,-0.036100,
2025-10-15T05:16:35.263989+00:00,11.075000,-0.039900,
2025-10-15T05:16:35.268989+00:00,11.080000,-0.045600,
2025-10-15T05:16:35.273989+00:00,11.085000,-0.050540,
2025-10-15T05:16:35.278989+00:00,11.090000,-0.050160,
2025-10-15T05:16:35.283989+00:00,11.095000,-0.042560,
2025-10-15T05:16:35.288989+00:00,11.100000,-0.031160,
2025-10-15T05:16:35.293989+00:00,11.105000,-0.019760,
2025-10-15T05:16:35.298989+00:00,11.110000,-0.019380,
2025-10-15T05:16:35.303989+00:00,11.115000,-0.031920,
2025-10-15T05:16:35.308989+00:00,11.120000,-0.046360,
2025-10-15T05:16:35.313989+00:00,11.125000,-0.047120,
2025-10-15T05:16:35.318989+00:00,11.130000,-0.036480,
2025-10-15T05:16:35.323989+00:00,11.135000,-0.030020,
2025-10-15T05:16:35.328989+00:00,11.140000,-0.035340,
2025-10-15T05:16:35.333989+00:00,11.145000,-0.042180,
2025-10-15T05:16:35.338989+00:00,11.150000,-0.041420,
2025-10-15T05:16:35.343989+00:00,11.155000,-0.037620,
2025-10-15T05:16:35.348989+00:00,11.160000,-0.042940,
2025-10-15T05:16:35.353989+00:00,11.165000,-0.048640,
2025-10-15T05:16:35.358989+00:00,11.170000,-0.043700,
2025-10-15T05:16:35.363989+00:00,11.175000,-0.033440,
2025-10-15T05:16:35.368989+00:00,11.180000,-0.031920,
2025-10-15T05:16:35.373989+00:00,11.185000,-0.042560,
2025-10-15T05:16:35.378989+00:00,11.190000,-0.049780,
2025-10-15T05:16:35.383989+00:00,11.195000,-0.042940,
2025-10-15T05:16:35.388989+00:00,11.200000,-0.024700,
2025-10-15T05:16:35.393989+00:00,11.205000,-0.014060,
2025-10-15T05:16:35.398989+00:00,11.210000,-0.017100,
2025-10-15T05:16:35.403989+00:00,11.215000,-0.025460,
2025-10-15T05:16:35.408989+00:00,11.220000,-0.030780,
2025-10-15T05:16:35.413989+00:00,11.225000,-0.032300,
2025-10-15T05:16:35.418989+00:00,11.230000,-0.032680,
2025-10-15T05:16:35.423989+00:00,11.235000,-0.038380,
2025-10-15T05:16:35.428989+00:00,11.240000,-0.047120,
2025-10-15T05:16:35.433989+00:00,11.245000,-0.053200,
2025-10-15T05:16:35.438989+00:00,11.250000,-0.047500,
2025-10-15T05:16:35.443989+00:00,11.255000,-0.033060,
2025-10-15T05:16:35.448989+00:00,11.260000,-0.027740,
2025-10-15T05:16:35.453989+00:00,11.265000,-0.037620,
2025-10-15T05:16:35.458989+00:00,11.270000,-0.046740,
2025-10-15T05:16:35.463989+00:00,11.275000,-0.042560,
2025-10-15T05:16:35.468989+00:00,11.280000,-0.041040,
2025-10-15T05:16:35.473989+00:00,11.285000,-0.049780,
2025-10-15T05:16:35.478989+00:00,11.290000,-0.051300,
2025-10-15T05:16:35.483989+00:00,11.295000,-0.031920,
2025-10-15T05:16:35.488989+00:00,11.300000,-0.012920,
2025-10-15T05:16:35.493989+00:00,11.305000,-0.015960,
2025-10-15T05:16:35.498989+00:00,11.310000,-0.034960,
2025-10-15T05:16:35.503989+00:00,11.315000,-0.041800,
