timestamp_utc,t_rel_sec,ecg_mV,event
2025-10-16T06:21:35.104380+00:00,0.000000,0.000000,
2025-10-16T06:21:35.109380+00:00,0.005000,-0.000380,
2025-10-16T06:21:35.114380+00:00,0.010000,-0.000380,
2025-10-16T06:21:35.119380+00:00,0.015000,-0.000760,
2025-10-16T06:21:35.124380+00:00,0.020000,-0.019760,
2025-10-16T06:21:35.129380+00:00,0.025000,0.022420,
2025-10-16T06:21:35.134380+00:00,0.030000,0.080560,
2025-10-16T06:21:35.139380+00:00,0.035000,-0.268660,
2025-10-16T06:21:35.144380+00:00,0.040000,-0.211280,
2025-10-16T06:21:35.149380+00:00,0.045000,1.164320,
2025-10-16T06:21:35.154380+00:00,0.050000,1.028280,
2025-10-16T06:21:35.159380+00:00,0.055000,-2.495460,
2025-10-16T06:21:35.164380+00:00,0.060000,-2.996680,
2025-10-16T06:21:35.169380+00:00,0.065000,8.092100,
2025-10-16T06:21:35.174380+00:00,0.070000,27.947480,
2025-10-16T06:21:35.179380+00:00,0.075000,41.954660,
2025-10-16T06:21:35.184380+00:00,0.080000,39.874920,
2025-10-16T06:21:35.189380+00:00,0.085000,27.292360,
2025-10-16T06:21:35.194380+00:00,0.090000,17.446940,
2025-10-16T06:21:35.199380+00:00,0.095000,15.290440,
2025-10-16T06:21:35.204380+00:00,0.100000,15.844100,
2025-10-16T06:21:35.209380+00:00,0.105000,15.257380,
2025-10-16T06:21:35.214380+00:00,0.110000,14.376540,
2025-10-16T06:21:35.219380+00:00,0.115000,14.251140,
2025-10-16T06:21:35.224380+00:00,0.120000,14.273180,
2025-10-16T06:21:35.229380+00:00,0.125000,13.385120,
2025-10-16T06:21:35.234380+00:00,0.130000,11.542880,
2025-10-16T06:21:35.239380+00:00,0.135000,9.805520,
2025-10-16T06:21:35.244380+00:00,0.140000,8.878700,
2025-10-16T06:21:35.249380+00:00,0.145000,8.199640,
2025-10-16T06:21:35.254380+00:00,0.150000,7.049760,
2025-10-16T06:21:35.259380+00:00,0.155000,5.765740,
2025-10-16T06:21:35.264380+00:00,0.160000,5.112520,
2025-10-16T06:21:35.269380+00:00,0.165000,5.003840,
2025-10-16T06:21:35.274380+00:00,0.170000,4.746960,
2025-10-16T06:21:35.279380+00:00,0.175000,4.224080,
2025-10-16T06:21:35.284380+00:00,0.180000,3.852820,
2025-10-16T06:21:35.289380+00:00,0.185000,3.750600,
2025-10-16T06:21:35.294380+00:00,0.190000,3.692460,
2025-10-16T06:21:35.299380+00:00,0.195000,3.562880,
2025-10-16T06:21:35.304380+00:00,0.200000,3.439760,
2025-10-16T06:21:35.309380+00:00,0.205000,3.354260,
2025-10-16T06:21:35.314380+00:00,0.210000,3.271800,
2025-10-16T06:21:35.319380+00:00,0.215000,3.188200,
2025-10-16T06:21:35.324380+00:00,0.220000,3.114860,
2025-10-16T06:21:35.329380+00:00,0.225000,3.051020,
2025-10-16T06:21:35.334380+00:00,0.230000,2.994780,
2025-10-16T06:21:35.339380+00:00,0.235000,2.940820,
2025-10-16T06:21:35.344380+00:00,0.240000,2.878880,
2025-10-16T06:21:35.349380+00:00,0.245000,2.815800,
2025-10-16T06:21:35.354380+00:00,0.250000,2.762600,
2025-10-16T06:21:35.359380+00:00,0.255000,2.717000,
2025-10-16T06:21:35.364380+00:00,0.260000,2.667600,
2025-10-16T06:21:35.369380+00:00,0.265000,2.614400,
2025-10-16T06:21:35.374380+00:00,0.270000,2.569560,
2025-10-16T06:21:35.379380+00:00,0.275000,2.536120,
2025-10-16T06:21:35.384380+00:00,0.280000,2.500780,
2025-10-16T06:21:35.389380+00:00,0.285000,2.451760,
2025-10-16T06:21:35.394380+00:00,0.290000,2.400460,
2025-10-16T06:21:35.399380+00:00,0.295000,2.360180,
2025-10-16T06:21:35.404380+00:00,0.300000,2.325980,
2025-10-16T06:21:35.409380+00:00,0.305000,2.283420,
2025-10-16T06:21:35.414380+00:00,0.310000,2.236300,
2025-10-16T06:21:35.419380+00:00,0.315000,2.197920,
2025-10-16T06:21:35.424380+00:00,0.320000,2.167520,
2025-10-16T06:21:35.429380+00:00,0.325000,2.137880,
2025-10-16T06:21:35.434380+00:00,0.330000,2.102160,
2025-10-16T06:21:35.439380+00:00,0.335000,2.057700,
2025-10-16T06:21:35.444380+00:00,0.340000,2.008300,
2025-10-16T06:21:35.449380+00:00,0.345000,1.969540,
2025-10-16T06:21:35.454380+00:00,0.350000,1.947500,
2025-10-16T06:21:35.459380+00:00,0.355000,1.931920,
2025-10-16T06:21:35.464380+00:00,0.360000,1.900380,
2025-10-16T06:21:35.469380+00:00,0.365000,1.847180,
2025-10-16T06:21:35.474380+00:00,0.370000,1.796260,
2025-10-16T06:21:35.479380+00:00,0.375000,1.768900,
2025-10-16T06:21:35.484380+00:00,0.380000,1.760540,
2025-10-16T06:21:35.489380+00:00,0.385000,1.745340,
2025-10-16T06:21:35.494380+00:00,0.390000,1.716080,
2025-10-16T06:21:35.499380+00:00,0.395000,1.684540,
2025-10-16T06:21:35.504380+00:00,0.400000,1.662880,
2025-10-16T06:21:35.509380+00:00,0.405000,1.646920,
2025-10-16T06:21:35.514380+00:00,0.410000,1.619940,
2025-10-16T06:21:35.519380+00:00,0.415000,1.581940,
2025-10-16T06:21:35.524380+00:00,0.420000,1.548500,
2025-10-16T06:21:35.529380+00:00,0.425000,1.529880,
2025-10-16T06:21:35.534380+00:00,0.430000,1.519620,
2025-10-16T06:21:35.539380+00:00,0.435000,1.501380,
2025-10-16T06:21:35.544380+00:00,0.440000,1.463000,
2025-10-16T06:21:35.549380+00:00,0.445000,1.418160,
2025-10-16T06:21:35.554380+00:00,0.450000,1.385860,
2025-10-16T06:21:35.559380+00:00,0.455000,1.370660,
2025-10-16T06:21:35.564380+00:00,0.460000,1.355840,
2025-10-16T06:21:35.569380+00:00,0.465000,1.328480,
2025-10-16T06:21:35.574380+00:00,0.470000,1.302260,
2025-10-16T06:21:35.579380+00:00,0.475000,1.293520,
2025-10-16T06:21:35.584380+00:00,0.480000,1.289720,
2025-10-16T06:21:35.589380+00:00,0.485000,1.267300,
2025-10-16T06:21:35.594380+00:00,0.490000,1.228540,
2025-10-16T06:21:35.599380+00:00,0.495000,1.200420,
2025-10-16T06:21:35.604380+00:00,0.500000,1.195480,
2025-10-16T06:21:35.609380+00:00,0.505000,1.198900,
2025-10-16T06:21:35.614380+00:00,0.510000,1.183700,
2025-10-16T06:21:35.619380+00:00,0.515000,1.149120,
2025-10-16T06:21:35.624380+00:00,0.520000,1.113020,
2025-10-16T06:21:35.629380+00:00,0.525000,1.086420,
2025-10-16T06:21:35.634380+00:00,0.530000,1.073880,
2025-10-16T06:21:35.639380+00:00,0.535000,1.068560,
2025-10-16T06:21:35.644380+00:00,0.540000,1.060580,
2025-10-16T06:21:35.649380+00:00,0.545000,1.037020,
2025-10-16T06:21:35.654380+00:00,0.550000,1.005100,
2025-10-16T06:21:35.659380+00:00,0.555000,0.973560,
2025-10-16T06:21:35.664380+00:00,0.560000,0.955700,
2025-10-16T06:21:35.669380+00:00,0.565000,0.949620,
2025-10-16T06:21:35.674380+00:00,0.570000,0.945820,
2025-10-16T06:21:35.679380+00:00,0.575000,0.939740,
2025-10-16T06:21:35.684380+00:00,0.580000,0.934800,
2025-10-16T06:21:35.689380+00:00,0.585000,0.921120,
2025-10-16T06:21:35.694380+00:00,0.590000,0.900220,
2025-10-16T06:21:35.699380+00:00,0.595000,0.872860,
2025-10-16T06:21:35.704380+00:00,0.600000,0.848540,
2025-10-16T06:21:35.709380+00:00,0.605000,0.834860,
2025-10-16T06:21:35.714380+00:00,0.610000,0.828780,
2025-10-16T06:21:35.719380+00:00,0.615000,0.820040,
2025-10-16T06:21:35.724380+00:00,0.620000,0.801420,
2025-10-16T06:21:35.729380+00:00,0.625000,0.773300,
2025-10-16T06:21:35.734380+00:00,0.630000,0.742900,
2025-10-16T06:21:35.739380+00:00,0.635000,0.724280,
2025-10-16T06:21:35.744380+00:00,0.640000,0.716680,
2025-10-16T06:21:35.749380+00:00,0.645000,0.716300,
2025-10-16T06:21:35.754380+00:00,0.650000,0.714020,
2025-10-16T06:21:35.759380+00:00,0.655000,0.699580,
2025-10-16T06:21:35.764380+00:00,0.660000,0.679820,
2025-10-16T06:21:35.769380+00:00,0.665000,0.662340,
2025-10-16T06:21:35.774380+00:00,0.670000,0.651700,
2025-10-16T06:21:35.779380+00:00,0.675000,0.649800,
2025-10-16T06:21:35.784380+00:00,0.680000,0.654360,
2025-10-16T06:21:35.789380+00:00,0.685000,0.652840,
2025-10-16T06:21:35.794380+00:00,0.690000,0.639920,
2025-10-16T06:21:35.799380+00:00,0.695000,0.621300,
2025-10-16T06:21:35.804380+00:00,0.700000,0.608760,
2025-10-16T06:21:35.809380+00:00,0.705000,0.600400,
2025-10-16T06:21:35.814380+00:00,0.710000,0.596600,
2025-10-16T06:21:35.819380+00:00,0.715000,0.592420,
2025-10-16T06:21:35.824380+00:00,0.720000,0.587100,
2025-10-16T06:21:35.829380+00:00,0.725000,0.577220,
2025-10-16T06:21:35.834380+00:00,0.730000,0.562020,
2025-10-16T06:21:35.839380+00:00,0.735000,0.545300,
2025-10-16T06:21:35.844380+00:00,0.740000,0.535420,
2025-10-16T06:21:35.849380+00:00,0.745000,0.526300,
2025-10-16T06:21:35.854380+00:00,0.750000,0.504260,
2025-10-16T06:21:35.859380+00:00,0.755000,0.475380,
2025-10-16T06:21:35.864380+00:00,0.760000,0.463600,
2025-10-16T06:21:35.869380+00:00,0.765000,0.474620,
2025-10-16T06:21:35.874380+00:00,0.770000,0.484880,
2025-10-16T06:21:35.879380+00:00,0.775000,0.478800,
2025-10-16T06:21:35.884380+00:00,0.780000,0.466640,
2025-10-16T06:21:35.889380+00:00,0.785000,0.464360,
2025-10-16T06:21:35.894380+00:00,0.790000,0.467020,
2025-10-16T06:21:35.899380+00:00,0.795000,0.454480,
2025-10-16T06:21:35.904380+00:00,0.800000,0.429400,
2025-10-16T06:21:35.909380+00:00,0.805000,0.411540,
2025-10-16T06:21:35.914380+00:00,0.810000,0.415720,
2025-10-16T06:21:35.919380+00:00,0.815000,0.424460,
2025-10-16T06:21:35.924380+00:00,0.820000,0.421040,
2025-10-16T06:21:35.929380+00:00,0.825000,0.404700,
2025-10-16T06:21:35.934380+00:00,0.830000,0.384560,
2025-10-16T06:21:35.939380+00:00,0.835000,0.371640,
2025-10-16T06:21:35.944380+00:00,0.840000,0.371260,
2025-10-16T06:21:35.949380+00:00,0.845000,0.374680,
2025-10-16T06:21:35.954380+00:00,0.850000,0.371260,
2025-10-16T06:21:35.959380+00:00,0.855000,0.362900,
2025-10-16T06:21:35.964380+00:00,0.860000,0.356060,
2025-10-16T06:21:35.969380+00:00,0.865000,0.351880,
2025-10-16T06:21:35.974380+00:00,0.870000,0.348460,
2025-10-16T06:21:35.979380+00:00,0.875000,0.338580,
2025-10-16T06:21:35.984380+00:00,0.880000,0.329460,
2025-10-16T06:21:35.989380+00:00,0.885000,0.326800,
2025-10-16T06:21:35.994380+00:00,0.890000,0.323760,
2025-10-16T06:21:35.999380+00:00,0.895000,0.311980,
2025-10-16T06:21:36.004380+00:00,0.900000,0.295640,
2025-10-16T06:21:36.009380+00:00,0.905000,0.286900,
2025-10-16T06:21:36.014380+00:00,0.910000,0.291080,
2025-10-16T06:21:36.019380+00:00,0.915000,0.296780,
2025-10-16T06:21:36.024380+00:00,0.920000,0.292980,
2025-10-16T06:21:36.029380+00:00,0.925000,0.278160,
2025-10-16T06:21:36.034380+00:00,0.930000,0.258780,
2025-10-16T06:21:36.039380+00:00,0.935000,0.246240,
2025-10-16T06:21:36.044380+00:00,0.940000,0.243580,
2025-10-16T06:21:36.049380+00:00,0.945000,0.249280,
2025-10-16T06:21:36.054380+00:00,0.950000,0.252320,
2025-10-16T06:21:36.059380+00:00,0.955000,0.241300,
2025-10-16T06:21:36.064380+00:00,0.960000,0.223060,
2025-10-16T06:21:36.069380+00:00,0.965000,0.218500,
2025-10-16T06:21:36.074380+00:00,0.970000,0.232560,
2025-10-16T06:21:36.079380+00:00,0.975000,0.239400,
2025-10-16T06:21:36.084380+00:00,0.980000,0.229520,
2025-10-16T06:21:36.089380+00:00,0.985000,0.219260,
2025-10-16T06:21:36.094380+00:00,0.990000,0.223820,
2025-10-16T06:21:36.099380+00:00,0.995000,0.227620,
2025-10-16T06:21:36.104380+00:00,1.000000,0.211660,
2025-10-16T06:21:36.109380+00:00,1.005000,0.188100,
2025-10-16T06:21:36.114380+00:00,1.010000,0.183160,
2025-10-16T06:21:36.119380+00:00,1.015000,0.196080,
2025-10-16T06:21:36.124380+00:00,1.020000,0.202920,
2025-10-16T06:21:36.129380+00:00,1.025000,0.192280,
2025-10-16T06:21:36.134380+00:00,1.030000,0.183920,
2025-10-16T06:21:36.139380+00:00,1.035000,0.186200,
2025-10-16T06:21:36.144380+00:00,1.040000,0.189620,
2025-10-16T06:21:36.149380+00:00,1.045000,0.184300,
2025-10-16T06:21:36.154380+00:00,1.050000,0.177840,
2025-10-16T06:21:36.159380+00:00,1.055000,0.176320,
2025-10-16T06:21:36.164380+00:00,1.060000,0.175940,
2025-10-16T06:21:36.169380+00:00,1.065000,0.173660,
2025-10-16T06:21:36.174380+00:00,1.070000,0.166060,
2025-10-16T06:21:36.179380+00:00,1.075000,0.151620,
2025-10-16T06:21:36.184380+00:00,1.080000,0.131480,
2025-10-16T06:21:36.189380+00:00,1.085000,0.115520,
2025-10-16T06:21:36.194380+00:00,1.090000,0.112480,
2025-10-16T06:21:36.199380+00:00,1.095000,0.123120,
2025-10-16T06:21:36.204380+00:00,1.100000,0.134140,
2025-10-16T06:21:36.209380+00:00,1.105000,0.138320,
2025-10-16T06:21:36.214380+00:00,1.110000,0.143260,
2025-10-16T06:21:36.219380+00:00,1.115000,0.148580,
2025-10-16T06:21:36.224380+00:00,1.120000,0.145160,
2025-10-16T06:21:36.229380+00:00,1.125000,0.136420,
2025-10-16T06:21:36.234380+00:00,1.130000,0.136800,
2025-10-16T06:21:36.239380+00:00,1.135000,0.145160,
2025-10-16T06:21:36.244380+00:00,1.140000,0.145920,
2025-10-16T06:21:36.249380+00:00,1.145000,0.133380,
2025-10-16T06:21:36.254380+00:00,1.150000,0.117040,
2025-10-16T06:21:36.259380+00:00,1.155000,0.109820,
2025-10-16T06:21:36.264380+00:00,1.160000,0.112100,
2025-10-16T06:21:36.269380+00:00,1.165000,0.117420,
2025-10-16T06:21:36.274380+00:00,1.170000,0.117420,
2025-10-16T06:21:36.279380+00:00,1.175000,0.109820,
2025-10-16T06:21:36.284380+00:00,1.180000,0.097280,
2025-10-16T06:21:36.289380+00:00,1.185000,0.093860,
2025-10-16T06:21:36.294380+00:00,1.190000,0.104500,
2025-10-16T06:21:36.299380+00:00,1.195000,0.117420,
2025-10-16T06:21:36.304380+00:00,1.200000,0.112100,
2025-10-16T06:21:36.309380+00:00,1.205000,0.093100,
2025-10-16T06:21:36.314380+00:00,1.210000,0.079420,
2025-10-16T06:21:36.319380+00:00,1.215000,0.078280,
2025-10-16T06:21:36.324380+00:00,1.220000,0.080560,
2025-10-16T06:21:36.329380+00:00,1.225000,0.079040,
2025-10-16T06:21:36.334380+00:00,1.230000,0.080560,
2025-10-16T06:21:36.339380+00:00,1.235000,0.083600,
2025-10-16T06:21:36.344380+00:00,1.240000,0.081320,
2025-10-16T06:21:36.349380+00:00,1.245000,0.071820,
2025-10-16T06:21:36.354380+00:00,1.250000,0.062700,
2025-10-16T06:21:36.359380+00:00,1.255000,0.059280,
2025-10-16T06:21:36.364380+00:00,1.260000,0.052440,
2025-10-16T06:21:36.369380+00:00,1.265000,0.038760,
2025-10-16T06:21:36.374380+00:00,1.270000,0.032680,
2025-10-16T06:21:36.379380+00:00,1.275000,0.042940,
2025-10-16T06:21:36.384380+00:00,1.280000,0.063460,
2025-10-16T06:21:36.389380+00:00,1.285000,0.074480,
2025-10-16T06:21:36.394380+00:00,1.290000,0.075620,
2025-10-16T06:21:36.399380+00:00,1.295000,0.076000,
2025-10-16T06:21:36.404380+00:00,1.300000,0.075620,
2025-10-16T06:21:36.409380+00:00,1.305000,0.072200,
2025-10-16T06:21:36.414380+00:00,1.310000,0.063080,
2025-10-16T06:21:36.419380+00:00,1.315000,0.049780,
2025-10-16T06:21:36.424380+00:00,1.320000,0.038380,
2025-10-16T06:21:36.429380+00:00,1.325000,0.038380,
2025-10-16T06:21:36.434380+00:00,1.330000,0.045980,
2025-10-16T06:21:36.439380+00:00,1.335000,0.053580,
2025-10-16T06:21:36.444380+00:00,1.340000,0.058900,
2025-10-16T06:21:36.449380+00:00,1.345000,0.056240,
2025-10-16T06:21:36.454380+00:00,1.350000,0.048260,
2025-10-16T06:21:36.459380+00:00,1.355000,0.041420,
2025-10-16T06:21:36.464380+00:00,1.360000,0.032680,
2025-10-16T06:21:36.469380+00:00,1.365000,0.025840,
2025-10-16T06:21:36.474380+00:00,1.370000,0.022800,
2025-10-16T06:21:36.479380+00:00,1.375000,0.025840,
2025-10-16T06:21:36.484380+00:00,1.380000,0.036100,
2025-10-16T06:21:36.489380+00:00,1.385000,0.049780,
2025-10-16T06:21:36.494380+00:00,1.390000,0.049780,
2025-10-16T06:21:36.499380+00:00,1.395000,0.031920,
2025-10-16T06:21:36.504380+00:00,1.400000,0.015580,
2025-10-16T06:21:36.509380+00:00,1.405000,0.017480,
2025-10-16T06:21:36.514380+00:00,1.410000,0.028880,
2025-10-16T06:21:36.519380+00:00,1.415000,0.039900,
2025-10-16T06:21:36.524380+00:00,1.420000,0.042180,
2025-10-16T06:21:36.529380+00:00,1.425000,0.034580,
2025-10-16T06:21:36.534380+00:00,1.430000,0.026600,
2025-10-16T06:21:36.539380+00:00,1.435000,0.022800,
2025-10-16T06:21:36.544380+00:00,1.440000,0.023180,
2025-10-16T06:21:36.549380+00:00,1.445000,0.030780,
2025-10-16T06:21:36.554380+00:00,1.450000,0.043320,
2025-10-16T06:21:36.559380+00:00,1.455000,0.047120,
2025-10-16T06:21:36.564380+00:00,1.460000,0.041040,
2025-10-16T06:21:36.569380+00:00,1.465000,0.029260,
2025-10-16T06:21:36.574380+00:00,1.470000,0.013680,
2025-10-16T06:21:36.579380+00:00,1.475000,0.004180,
2025-10-16T06:21:36.584380+00:00,1.480000,0.000000,
2025-10-16T06:21:36.589380+00:00,1.485000,0.001140,
2025-10-16T06:21:36.594380+00:00,1.490000,0.016340,
2025-10-16T06:21:36.599380+00:00,1.495000,0.035720,
2025-10-16T06:21:36.604380+00:00,1.500000,0.042180,
2025-10-16T06:21:36.609380+00:00,1.505000,0.032300,
2025-10-16T06:21:36.614380+00:00,1.510000,0.018620,
2025-10-16T06:21:36.619380+00:00,1.515000,0.008740,
2025-10-16T06:21:36.624380+00:00,1.520000,0.010260,
2025-10-16T06:21:36.629380+00:00,1.525000,0.019380,
2025-10-16T06:21:36.634380+00:00,1.530000,0.028880,
2025-10-16T06:21:36.639380+00:00,1.535000,0.031160,
2025-10-16T06:21:36.644380+00:00,1.540000,0.023940,
2025-10-16T06:21:36.649380+00:00,1.545000,0.005320,
2025-10-16T06:21:36.654380+00:00,1.550000,-0.012160,
2025-10-16T06:21:36.659380+00:00,1.555000,-0.014060,
2025-10-16T06:21:36.664380+00:00,1.560000,-0.003420,
2025-10-16T06:21:36.669380+00:00,1.565000,0.007600,
2025-10-16T06:21:36.674380+00:00,1.570000,0.011780,
2025-10-16T06:21:36.679380+00:00,1.575000,0.004940,
2025-10-16T06:21:36.684380+00:00,1.580000,-0.004180,
2025-10-16T06:21:36.689380+00:00,1.585000,-0.010260,
2025-10-16T06:21:36.694380+00:00,1.590000,-0.011400,
2025-10-16T06:21:36.699380+00:00,1.595000,-0.007600,
2025-10-16T06:21:36.704380+00:00,1.600000,-0.005700,
2025-10-16T06:21:36.709380+00:00,1.605000,-0.007220,
2025-10-16T06:21:36.714380+00:00,1.610000,-0.006840,
2025-10-16T06:21:36.719380+00:00,1.615000,-0.001520,
2025-10-16T06:21:36.724380+00:00,1.620000,0.006840,
2025-10-16T06:21:36.729380+00:00,1.625000,0.009120,
2025-10-16T06:21:36.734380+00:00,1.630000,-0.001140,
2025-10-16T06:21:36.739380+00:00,1.635000,-0.019380,
2025-10-16T06:21:36.744380+00:00,1.640000,-0.030780,
2025-10-16T06:21:36.749380+00:00,1.645000,-0.022040,
2025-10-16T06:21:36.754380+00:00,1.650000,-0.000380,
2025-10-16T06:21:36.759380+00:00,1.655000,0.010640,
2025-10-16T06:21:36.764380+00:00,1.660000,-0.001520,
2025-10-16T06:21:36.769380+00:00,1.665000,-0.019760,
2025-10-16T06:21:36.774380+00:00,1.670000,-0.015960,
2025-10-16T06:21:36.779380+00:00,1.675000,0.000000,
2025-10-16T06:21:36.784380+00:00,1.680000,0.003420,
2025-10-16T06:21:36.789380+00:00,1.685000,-0.014820,
2025-10-16T06:21:36.794380+00:00,1.690000,-0.030400,
2025-10-16T06:21:36.799380+00:00,1.695000,-0.019380,
2025-10-16T06:21:36.804380+00:00,1.700000,0.006460,
2025-10-16T06:21:36.809380+00:00,1.705000,0.016720,
2025-10-16T06:21:36.814380+00:00,1.710000,0.006460,
2025-10-16T06:21:36.819380+00:00,1.715000,-0.007600,
2025-10-16T06:21:36.824380+00:00,1.720000,-0.014060,
2025-10-16T06:21:36.829380+00:00,1.725000,-0.013680,
2025-10-16T06:21:36.834380+00:00,1.730000,-0.001140,
2025-10-16T06:21:36.839380+00:00,1.735000,0.011780,
2025-10-16T06:21:36.844380+00:00,1.740000,0.012160,
2025-10-16T06:21:36.849380+00:00,1.745000,-0.003800,
2025-10-16T06:21:36.854380+00:00,1.750000,-0.012920,
2025-10-16T06:21:36.859380+00:00,1.755000,-0.002280,
2025-10-16T06:21:36.864380+00:00,1.760000,0.014060,
2025-10-16T06:21:36.869380+00:00,1.765000,0.009120,
2025-10-16T06:21:36.874380+00:00,1.770000,-0.006080,
2025-10-16T06:21:36.879380+00:00,1.775000,-0.014440,
2025-10-16T06:21:36.884380+00:00,1.780000,-0.018620,
2025-10-16T06:21:36.889380+00:00,1.785000,-0.026600,
2025-10-16T06:21:36.894380+00:00,1.790000,-0.026600,
2025-10-16T06:21:36.899380+00:00,1.795000,-0.013680,
2025-10-16T06:21:36.904380+00:00,1.800000,-0.001900,
2025-10-16T06:21:36.909380+00:00,1.805000,-0.004180,
2025-10-16T06:21:36.914380+00:00,1.810000,-0.014060,
2025-10-16T06:21:36.919380+00:00,1.815000,-0.022420,
2025-10-16T06:21:36.924380+00:00,1.820000,-0.022420,
2025-10-16T06:21:36.929380+00:00,1.825000,-0.025080,
2025-10-16T06:21:36.934380+00:00,1.830000,-0.029260,
2025-10-16T06:21:36.939380+00:00,1.835000,-0.031160,
2025-10-16T06:21:36.944380+00:00,1.840000,-0.033820,
2025-10-16T06:21:36.949380+00:00,1.845000,-0.037240,
2025-10-16T06:21:36.954380+00:00,1.850000,-0.033060,
2025-10-16T06:21:36.959380+00:00,1.855000,-0.025840,
2025-10-16T06:21:36.964380+00:00,1.860000,-0.026220,
2025-10-16T06:21:36.969380+00:00,1.865000,-0.033060,
2025-10-16T06:21:36.974380+00:00,1.870000,-0.042560,
2025-10-16T06:21:36.979380+00:00,1.875000,-0.050160,
2025-10-16T06:21:36.984380+00:00,1.880000,-0.044460,
2025-10-16T06:21:36.989380+00:00,1.885000,-0.028880,
2025-10-16T06:21:36.994380+00:00,1.890000,-0.018240,
2025-10-16T06:21:36.999380+00:00,1.895000,-0.018620,
2025-10-16T06:21:37.004380+00:00,1.900000,-0.026220,
2025-10-16T06:21:37.009380+00:00,1.905000,-0.033060,
2025-10-16T06:21:37.014380+00:00,1.910000,-0.035340,
2025-10-16T06:21:37.019380+00:00,1.915000,-0.031540,
2025-10-16T06:21:37.024380+00:00,1.920000,-0.030400,
2025-10-16T06:21:37.029380+00:00,1.925000,-0.033440,
2025-10-16T06:21:37.034380+00:00,1.930000,-0.033440,
2025-10-16T06:21:37.039380+00:00,1.935000,-0.033820,
2025-10-16T06:21:37.044380+00:00,1.940000,-0.038000,
2025-10-16T06:21:37.049380+00:00,1.945000,-0.046360,
2025-10-16T06:21:37.054380+00:00,1.950000,-0.051300,
2025-10-16T06:21:37.059380+00:00,1.955000,-0.042940,
2025-10-16T06:21:37.064380+00:00,1.960000,-0.024320,
2025-10-16T06:21:37.069380+00:00,1.965000,-0.016340,
2025-10-16T06:21:37.074380+00:00,1.970000,-0.031160,
2025-10-16T06:21:37.079380+00:00,1.975000,-0.053960,
2025-10-16T06:21:37.084380+00:00,1.980000,-0.063460,
2025-10-16T06:21:37.089380+00:00,1.985000,-0.058900,
2025-10-16T06:21:37.094380+00:00,1.990000,-0.047500,
2025-10-16T06:21:37.099380+00:00,1.995000,-0.029640,
2025-10-16T06:21:37.104380+00:00,2.000000,-0.012920,
2025-10-16T06:21:37.109380+00:00,2.005000,-0.006840,
2025-10-16T06:21:37.114380+00:00,2.010000,-0.012160,
2025-10-16T06:21:37.119380+00:00,2.015000,-0.017860,
2025-10-16T06:21:37.124380+00:00,2.020000,-0.020140,
2025-10-16T06:21:37.129380+00:00,2.025000,-0.023180,
2025-10-16T06:21:37.134380+00:00,2.030000,-0.028500,
2025-10-16T06:21:37.139380+00:00,2.035000,-0.038760,
2025-10-16T06:21:37.144380+00:00,2.040000,-0.045600,
2025-10-16T06:21:37.149380+00:00,2.045000,-0.044460,
2025-10-16T06:21:37.154380+00:00,2.050000,-0.038380,
2025-10-16T06:21:37.159380+00:00,2.055000,-0.028880,
2025-10-16T06:21:37.164380+00:00,2.060000,-0.011780,
2025-10-16T06:21:37.169380+00:00,2.065000,-0.007600,
2025-10-16T06:21:37.174380+00:00,2.070000,-0.026980,
2025-10-16T06:21:37.179380+00:00,2.075000,-0.056620,
2025-10-16T06:21:37.184380+00:00,2.080000,-0.064220,
2025-10-16T06:21:37.189380+00:00,2.085000,-0.047880,
2025-10-16T06:21:37.194380+00:00,2.090000,-0.022800,
2025-10-16T06:21:37.199380+00:00,2.095000,-0.011400,
2025-10-16T06:21:37.204380+00:00,2.100000,-0.016720,
2025-10-16T06:21:37.209380+00:00,2.105000,-0.031920,
2025-10-16T06:21:37.214380+00:00,2.110000,-0.045600,
2025-10-16T06:21:37.219380+00:00,2.115000,-0.056240,
2025-10-16T06:21:37.224380+00:00,2.120000,-0.057760,
2025-10-16T06:21:37.229380+00:00,2.125000,-0.047500,
2025-10-16T06:21:37.234380+00:00,2.130000,-0.038000,
2025-10-16T06:21:37.239380+00:00,2.135000,-0.032680,
2025-10-16T06:21:37.244380+00:00,2.140000,-0.024700,
2025-10-16T06:21:37.249380+00:00,2.145000,-0.017480,
2025-10-16T06:21:37.254380+00:00,2.150000,-0.022040,
2025-10-16T06:21:37.259380+00:00,2.155000,-0.037240,
2025-10-16T06:21:37.264380+00:00,2.160000,-0.047120,
2025-10-16T06:21:37.269380+00:00,2.165000,-0.042560,
2025-10-16T06:21:37.274380+00:00,2.170000,-0.033060,
2025-10-16T06:21:37.279380+00:00,2.175000,-0.031160,
2025-10-16T06:21:37.284380+00:00,2.180000,-0.030780,
2025-10-16T06:21:37.289380+00:00,2.185000,-0.025460,
2025-10-16T06:21:37.294380+00:00,2.190000,-0.020520,
2025-10-16T06:21:37.299380+00:00,2.195000,-0.023940,
2025-10-16T06:21:37.304380+00:00,2.200000,-0.030020,
2025-10-16T06:21:37.309380+00:00,2.205000,-0.030400,
2025-10-16T06:21:37.314380+00:00,2.210000,-0.020900,
2025-10-16T06:21:37.319380+00:00,2.215000,-0.017100,
2025-10-16T06:21:37.324380+00:00,2.220000,-0.027740,
2025-10-16T06:21:37.329380+00:00,2.225000,-0.045980,
2025-10-16T06:21:37.334380+00:00,2.230000,-0.049780,
2025-10-16T06:21:37.339380+00:00,2.235000,-0.033820,
2025-10-16T06:21:37.344380+00:00,2.240000,-0.019380,
2025-10-16T06:21:37.349380+00:00,2.245000,-0.021660,
2025-10-16T06:21:37.354380+00:00,2.250000,-0.034580,
2025-10-16T06:21:37.359380+00:00,2.255000,-0.043320,
2025-10-16T06:21:37.364380+00:00,2.260000,-0.047880,
2025-10-16T06:21:37.369380+00:00,2.265000,-0.057000,
2025-10-16T06:21:37.374380+00:00,2.270000,-0.062700,
2025-10-16T06:21:37.379380+00:00,2.275000,-0.049780,
2025-10-16T06:21:37.384380+00:00,2.280000,-0.016720,
2025-10-16T06:21:37.389380+00:00,2.285000,0.004180,
2025-10-16T06:21:37.394380+00:00,2.290000,-0.009500,
2025-10-16T06:21:37.399380+00:00,2.295000,-0.036860,
2025-10-16T06:21:37.404380+00:00,2.300000,-0.055860,
2025-10-16T06:21:37.409380+00:00,2.305000,-0.058900,
2025-10-16T06:21:37.414380+00:00,2.310000,-0.050160,
2025-10-16T06:21:37.419380+00:00,2.315000,-0.028500,
2025-10-16T06:21:37.424380+00:00,2.320000,-0.006080,
2025-10-16T06:21:37.429380+00:00,2.325000,-0.003420,
2025-10-16T06:21:37.434380+00:00,2.330000,-0.029260,
2025-10-16T06:21:37.439380+00:00,2.335000,-0.060800,
2025-10-16T06:21:37.444380+00:00,2.340000,-0.069540,
2025-10-16T06:21:37.449380+00:00,2.345000,-0.054340,
2025-10-16T06:21:37.454380+00:00,2.350000,-0.037620,
2025-10-16T06:21:37.459380+00:00,2.355000,-0.031920,
2025-10-16T06:21:37.464380+00:00,2.360000,-0.031540,
2025-10-16T06:21:37.469380+00:00,2.365000,-0.032300,
2025-10-16T06:21:37.474380+00:00,2.370000,-0.038000,
2025-10-16T06:21:37.479380+00:00,2.375000,-0.048260,
2025-10-16T06:21:37.484380+00:00,2.380000,-0.055860,
2025-10-16T06:21:37.489380+00:00,2.385000,-0.058520,
2025-10-16T06:21:37.494380+00:00,2.390000,-0.057000,
2025-10-16T06:21:37.499380+00:00,2.395000,-0.045600,
2025-10-16T06:21:37.504380+00:00,2.400000,-0.026600,
2025-10-16T06:21:37.509380+00:00,2.405000,-0.017100,
2025-10-16T06:21:37.514380+00:00,2.410000,-0.026220,
2025-10-16T06:21:37.519380+00:00,2.415000,-0.042940,
2025-10-16T06:21:37.524380+00:00,2.420000,-0.054720,
2025-10-16T06:21:37.529380+00:00,2.425000,-0.054340,
2025-10-16T06:21:37.534380+00:00,2.430000,-0.056620,
2025-10-16T06:21:37.539380+00:00,2.435000,-0.063840,
2025-10-16T06:21:37.544380+00:00,2.440000,-0.065360,
2025-10-16T06:21:37.549380+00:00,2.445000,-0.054340,
2025-10-16T06:21:37.554380+00:00,2.450000,-0.044460,
2025-10-16T06:21:37.559380+00:00,2.455000,-0.042940,
2025-10-16T06:21:37.564380+00:00,2.460000,-0.042180,
2025-10-16T06:21:37.569380+00:00,2.465000,-0.040660,
2025-10-16T06:21:37.574380+00:00,2.470000,-0.038760,
2025-10-16T06:21:37.579380+00:00,2.475000,-0.039900,
2025-10-16T06:21:37.584380+00:00,2.480000,-0.047500,
2025-10-16T06:21:37.589380+00:00,2.485000,-0.049020,
2025-10-16T06:21:37.594380+00:00,2.490000,-0.039520,
2025-10-16T06:21:37.599380+00:00,2.495000,-0.030780,
2025-10-16T06:21:37.604380+00:00,2.500000,-0.034580,
2025-10-16T06:21:37.609380+00:00,2.505000,-0.042560,
2025-10-16T06:21:37.614380+00:00,2.510000,-0.049780,
2025-10-16T06:21:37.619380+00:00,2.515000,-0.049400,
2025-10-16T06:21:37.624380+00:00,2.520000,-0.047120,
2025-10-16T06:21:37.629380+00:00,2.525000,-0.055860,
2025-10-16T06:21:37.634380+00:00,2.530000,-0.073340,
2025-10-16T06:21:37.639380+00:00,2.535000,-0.080560,
2025-10-16T06:21:37.644380+00:00,2.540000,-0.066120,
2025-10-16T06:21:37.649380+00:00,2.545000,-0.038380,
2025-10-16T06:21:37.654380+00:00,2.550000,-0.013300,
2025-10-16T06:21:37.659380+00:00,2.555000,-0.007220,
2025-10-16T06:21:37.664380+00:00,2.560000,-0.017860,
2025-10-16T06:21:37.669380+00:00,2.565000,-0.028500,
2025-10-16T06:21:37.674380+00:00,2.570000,-0.025460,
2025-10-16T06:21:37.679380+00:00,2.575000,-0.025460,
2025-10-16T06:21:37.684380+00:00,2.580000,-0.036860,
2025-10-16T06:21:37.689380+00:00,2.585000,-0.055480,
2025-10-16T06:21:37.694380+00:00,2.590000,-0.070680,
2025-10-16T06:21:37.699380+00:00,2.595000,-0.071440,
2025-10-16T06:21:37.704380+00:00,2.600000,-0.057000,
2025-10-16T06:21:37.709380+00:00,2.605000,-0.038760,
2025-10-16T06:21:37.714380+00:00,2.610000,-0.027740,
2025-10-16T06:21:37.719380+00:00,2.615000,-0.022800,
2025-10-16T06:21:37.724380+00:00,2.620000,-0.022420,
2025-10-16T06:21:37.729380+00:00,2.625000,-0.023180,
2025-10-16T06:21:37.734380+00:00,2.630000,-0.020900,
2025-10-16T06:21:37.739380+00:00,2.635000,-0.030020,
2025-10-16T06:21:37.744380+00:00,2.640000,-0.055860,
2025-10-16T06:21:37.749380+00:00,2.645000,-0.080560,
2025-10-16T06:21:37.754380+00:00,2.650000,-0.080560,
2025-10-16T06:21:37.759380+00:00,2.655000,-0.057760,
2025-10-16T06:21:37.764380+00:00,2.660000,-0.033060,
2025-10-16T06:21:37.769380+00:00,2.665000,-0.028500,
2025-10-16T06:21:37.774380+00:00,2.670000,-0.042180,
2025-10-16T06:21:37.779380+00:00,2.675000,-0.053960,
2025-10-16T06:21:37.784380+00:00,2.680000,-0.055100,
2025-10-16T06:21:37.789380+00:00,2.685000,-0.050160,
2025-10-16T06:21:37.794380+00:00,2.690000,-0.046740,
2025-10-16T06:21:37.799380+00:00,2.695000,-0.051300,
2025-10-16T06:21:37.804380+00:00,2.700000,-0.063460,
2025-10-16T06:21:37.809380+00:00,2.705000,-0.073720,
2025-10-16T06:21:37.814380+00:00,2.710000,-0.072200,
2025-10-16T06:21:37.819380+00:00,2.715000,-0.057760,
2025-10-16T06:21:37.824380+00:00,2.720000,-0.041420,
2025-10-16T06:21:37.829380+00:00,2.725000,-0.033820,
2025-10-16T06:21:37.834380+00:00,2.730000,-0.038380,
2025-10-16T06:21:37.839380+00:00,2.735000,-0.045220,
2025-10-16T06:21:37.844380+00:00,2.740000,-0.044080,
2025-10-16T06:21:37.849380+00:00,2.745000,-0.041420,
2025-10-16T06:21:37.854380+00:00,2.750000,-0.044840,
2025-10-16T06:21:37.859380+00:00,2.755000,-0.052440,
2025-10-16T06:21:37.864380+00:00,2.760000,-0.055100,
2025-10-16T06:21:37.869380+00:00,2.765000,-0.045980,
2025-10-16T06:21:37.874380+00:00,2.770000,-0.032300,
2025-10-16T06:21:37.879380+00:00,2.775000,-0.030400,
2025-10-16T06:21:37.884380+00:00,2.780000,-0.049780,
2025-10-16T06:21:37.889380+00:00,2.785000,-0.075240,
2025-10-16T06:21:37.894380+00:00,2.790000,-0.086260,
2025-10-16T06:21:37.899380+00:00,2.795000,-0.075240,
2025-10-16T06:21:37.904380+00:00,2.800000,-0.053960,
2025-10-16T06:21:37.909380+00:00,2.805000,-0.039140,
2025-10-16T06:21:37.914380+00:00,2.810000,-0.039900,
2025-10-16T06:21:37.919380+00:00,2.815000,-0.046360,
2025-10-16T06:21:37.924380+00:00,2.820000,-0.047500,
2025-10-16T06:21:37.929380+00:00,2.825000,-0.044460,
2025-10-16T06:21:37.934380+00:00,2.830000,-0.042180,
2025-10-16T06:21:37.939380+00:00,2.835000,-0.047500,
2025-10-16T06:21:37.944380+00:00,2.840000,-0.056240,
2025-10-16T06:21:37.949380+00:00,2.845000,-0.055100,
2025-10-16T06:21:37.954380+00:00,2.850000,-0.046360,
2025-10-16T06:21:37.959380+00:00,2.855000,-0.043320,
2025-10-16T06:21:37.964380+00:00,2.860000,-0.046360,
2025-10-16T06:21:37.969380+00:00,2.865000,-0.041800,
2025-10-16T06:21:37.974380+00:00,2.870000,-0.030780,
2025-10-16T06:21:37.979380+00:00,2.875000,-0.024700,
2025-10-16T06:21:37.984380+00:00,2.880000,-0.028500,
2025-10-16T06:21:37.989380+00:00,2.885000,-0.028880,
2025-10-16T06:21:37.994380+00:00,2.890000,-0.025840,
2025-10-16T06:21:37.999380+00:00,2.895000,-0.029260,
2025-10-16T06:21:38.004380+00:00,2.900000,-0.046360,
2025-10-16T06:21:38.009380+00:00,2.905000,-0.060420,
2025-10-16T06:21:38.014380+00:00,2.910000,-0.062700,
2025-10-16T06:21:38.019380+00:00,2.915000,-0.054720,
2025-10-16T06:21:38.024380+00:00,2.920000,-0.051680,
2025-10-16T06:21:38.029380+00:00,2.925000,-0.058140,
2025-10-16T06:21:38.034380+00:00,2.930000,-0.062700,
2025-10-16T06:21:38.039380+00:00,2.935000,-0.056240,
2025-10-16T06:21:38.044380+00:00,2.940000,-0.045600,
2025-10-16T06:21:38.049380+00:00,2.945000,-0.040660,
2025-10-16T06:21:38.054380+00:00,2.950000,-0.040660,
2025-10-16T06:21:38.059380+00:00,2.955000,-0.039520,
2025-10-16T06:21:38.064380+00:00,2.960000,-0.034960,
2025-10-16T06:21:38.069380+00:00,2.965000,-0.027740,
2025-10-16T06:21:38.074380+00:00,2.970000,-0.021280,
2025-10-16T06:21:38.079380+00:00,2.975000,-0.016340,
2025-10-16T06:21:38.084380+00:00,2.980000,-0.013300,
2025-10-16T06:21:38.089380+00:00,2.985000,-0.021280,
2025-10-16T06:21:38.094380+00:00,2.990000,-0.035340,
2025-10-16T06:21:38.099380+00:00,2.995000,-0.042180,
2025-10-16T06:21:38.104380+00:00,3.000000,-0.034580,
2025-10-16T06:21:38.109380+00:00,3.005000,-0.025460,
2025-10-16T06:21:38.114380+00:00,3.010000,-0.027360,
2025-10-16T06:21:38.119380+00:00,3.015000,-0.040280,
2025-10-16T06:21:38.124380+00:00,3.020000,-0.053200,
2025-10-16T06:21:38.129380+00:00,3.025000,-0.055860,
2025-10-16T06:21:38.134380+00:00,3.030000,-0.049020,
2025-10-16T06:21:38.139380+00:00,3.035000,-0.036860,
2025-10-16T06:21:38.144380+00:00,3.040000,-0.030400,
2025-10-16T06:21:38.149380+00:00,3.045000,-0.036100,
2025-10-16T06:21:38.154380+00:00,3.050000,-0.049400,
2025-10-16T06:21:38.159380+00:00,3.055000,-0.052060,
2025-10-16T06:21:38.164380+00:00,3.060000,-0.042180,
2025-10-16T06:21:38.169380+00:00,3.065000,-0.037240,
2025-10-16T06:21:38.174380+00:00,3.070000,-0.046360,
2025-10-16T06:21:38.179380+00:00,3.075000,-0.053580,
2025-10-16T06:21:38.184380+00:00,3.080000,-0.039140,
2025-10-16T06:21:38.189380+00:00,3.085000,-0.022040,
2025-10-16T06:21:38.194380+00:00,3.090000,-0.030780,
2025-10-16T06:21:38.199380+00:00,3.095000,-0.060800,
2025-10-16T06:21:38.204380+00:00,3.100000,-0.084360,
2025-10-16T06:21:38.209380+00:00,3.105000,-0.077140,
2025-10-16T06:21:38.214380+00:00,3.110000,-0.052820,
2025-10-16T06:21:38.219380+00:00,3.115000,-0.039520,
2025-10-16T06:21:38.224380+00:00,3.120000,-0.041420,
2025-10-16T06:21:38.229380+00:00,3.125000,-0.052440,
2025-10-16T06:21:38.234380+00:00,3.130000,-0.050920,
2025-10-16T06:21:38.239380+00:00,3.135000,-0.036480,
2025-10-16T06:21:38.244380+00:00,3.140000,-0.028500,
2025-10-16T06:21:38.249380+00:00,3.145000,-0.039900,
2025-10-16T06:21:38.254380+00:00,3.150000,-0.052440,
2025-10-16T06:21:38.259380+00:00,3.155000,-0.042180,
2025-10-16T06:21:38.264380+00:00,3.160000,-0.017100,
2025-10-16T06:21:38.269380+00:00,3.165000,-0.012540,
2025-10-16T06:21:38.274380+00:00,3.170000,-0.032680,
2025-10-16T06:21:38.279380+00:00,3.175000,-0.058140,
2025-10-16T06:21:38.284380+00:00,3.180000,-0.064600,
2025-10-16T06:21:38.289380+00:00,3.185000,-0.053200,
2025-10-16T06:21:38.294380+00:00,3.190000,-0.041800,
2025-10-16T06:21:38.299380+00:00,3.195000,-0.040280,
2025-10-16T06:21:38.304380+00:00,3.200000,-0.045220,
2025-10-16T06:21:38.309380+00:00,3.205000,-0.049400,
2025-10-16T06:21:38.314380+00:00,3.210000,-0.048260,
2025-10-16T06:21:38.319380+00:00,3.215000,-0.044840,
2025-10-16T06:21:38.324380+00:00,3.220000,-0.044460,
2025-10-16T06:21:38.329380+00:00,3.225000,-0.044840,
2025-10-16T06:21:38.334380+00:00,3.230000,-0.046360,
2025-10-16T06:21:38.339380+00:00,3.235000,-0.051300,
2025-10-16T06:21:38.344380+00:00,3.240000,-0.058520,
2025-10-16T06:21:38.349380+00:00,3.245000,-0.058520,
2025-10-16T06:21:38.354380+00:00,3.250000,-0.052440,
2025-10-16T06:21:38.359380+00:00,3.255000,-0.047500,
2025-10-16T06:21:38.364380+00:00,3.260000,-0.055860,
2025-10-16T06:21:38.369380+00:00,3.265000,-0.067260,
2025-10-16T06:21:38.374380+00:00,3.270000,-0.059660,
2025-10-16T06:21:38.379380+00:00,3.275000,-0.030780,
2025-10-16T06:21:38.384380+00:00,3.280000,-0.005700,
2025-10-16T06:21:38.389380+00:00,3.285000,-0.012540,
2025-10-16T06:21:38.394380+00:00,3.290000,-0.043700,
2025-10-16T06:21:38.399380+00:00,3.295000,-0.066880,
2025-10-16T06:21:38.404380+00:00,3.300000,-0.063080,
2025-10-16T06:21:38.409380+00:00,3.305000,-0.042180,
2025-10-16T06:21:38.414380+00:00,3.310000,-0.032680,
2025-10-16T06:21:38.419380+00:00,3.315000,-0.038380,
2025-10-16T06:21:38.424380+00:00,3.320000,-0.049780,
2025-10-16T06:21:38.429380+00:00,3.325000,-0.053200,
2025-10-16T06:21:38.434380+00:00,3.330000,-0.034960,
2025-10-16T06:21:38.439380+00:00,3.335000,-0.006080,
2025-10-16T06:21:38.444380+00:00,3.340000,0.003420,
2025-10-16T06:21:38.449380+00:00,3.345000,-0.016340,
2025-10-16T06:21:38.454380+00:00,3.350000,-0.036100,
2025-10-16T06:21:38.459380+00:00,3.355000,-0.035340,
2025-10-16T06:21:38.464380+00:00,3.360000,-0.031160,
2025-10-16T06:21:38.469380+00:00,3.365000,-0.038760,
2025-10-16T06:21:38.474380+00:00,3.370000,-0.045220,
2025-10-16T06:21:38.479380+00:00,3.375000,-0.031160,
2025-10-16T06:21:38.484380+00:00,3.380000,-0.011020,
2025-10-16T06:21:38.489380+00:00,3.385000,-0.012540,
2025-10-16T06:21:38.494380+00:00,3.390000,-0.028500,
2025-10-16T06:21:38.499380+00:00,3.395000,-0.035720,
2025-10-16T06:21:38.504380+00:00,3.400000,-0.035720,
2025-10-16T06:21:38.509380+00:00,3.405000,-0.043700,
2025-10-16T06:21:38.514380+00:00,3.410000,-0.053960,
2025-10-16T06:21:38.519380+00:00,3.415000,-0.045220,
2025-10-16T06:21:38.524380+00:00,3.420000,-0.023180,
2025-10-16T06:21:38.529380+00:00,3.425000,-0.013680,
2025-10-16T06:21:38.534380+00:00,3.430000,-0.023180,
2025-10-16T06:21:38.539380+00:00,3.435000,-0.037240,
2025-10-16T06:21:38.544380+00:00,3.440000,-0.051680,
2025-10-16T06:21:38.549380+00:00,3.445000,-0.068020,
2025-10-16T06:21:38.554380+00:00,3.450000,-0.087780,
2025-10-16T06:21:38.559380+00:00,3.455000,-0.094620,
2025-10-16T06:21:38.564380+00:00,3.460000,-0.077520,
2025-10-16T06:21:38.569380+00:00,3.465000,-0.046740,
2025-10-16T06:21:38.574380+00:00,3.470000,-0.036860,
2025-10-16T06:21:38.579380+00:00,3.475000,-0.060800,
2025-10-16T06:21:38.584380+00:00,3.480000,-0.089300,
2025-10-16T06:21:38.589380+00:00,3.485000,-0.078660,
2025-10-16T06:21:38.594380+00:00,3.490000,-0.036860,
2025-10-16T06:21:38.599380+00:00,3.495000,-0.012540,
2025-10-16T06:21:38.604380+00:00,3.500000,-0.029260,
2025-10-16T06:21:38.609380+00:00,3.505000,-0.056620,
2025-10-16T06:21:38.614380+00:00,3.510000,-0.062320,
2025-10-16T06:21:38.619380+00:00,3.515000,-0.045600,
2025-10-16T06:21:38.624380+00:00,3.520000,-0.031920,
2025-10-16T06:21:38.629380+00:00,3.525000,-0.033820,
2025-10-16T06:21:38.634380+00:00,3.530000,-0.039140,
2025-10-16T06:21:38.639380+00:00,3.535000,-0.039900,
2025-10-16T06:21:38.644380+00:00,3.540000,-0.034200,
2025-10-16T06:21:38.649380+00:00,3.545000,-0.034960,
2025-10-16T06:21:38.654380+00:00,3.550000,-0.041800,
2025-10-16T06:21:38.659380+00:00,3.555000,-0.050540,
2025-10-16T06:21:38.664380+00:00,3.560000,-0.053960,
2025-10-16T06:21:38.669380+00:00,3.565000,-0.049400,
2025-10-16T06:21:38.674380+00:00,3.570000,-0.043700,
2025-10-16T06:21:38.679380+00:00,3.575000,-0.044460,
2025-10-16T06:21:38.684380+00:00,3.580000,-0.043700,
2025-10-16T06:21:38.689380+00:00,3.585000,-0.041800,
2025-10-16T06:21:38.694380+00:00,3.590000,-0.048640,
2025-10-16T06:21:38.699380+00:00,3.595000,-0.062320,
2025-10-16T06:21:38.704380+00:00,3.600000,-0.060420,
2025-10-16T06:21:38.709380+00:00,3.605000,-0.042560,
2025-10-16T06:21:38.714380+00:00,3.610000,-0.027740,
2025-10-16T06:21:38.719380+00:00,3.615000,-0.025460,
2025-10-16T06:21:38.724380+00:00,3.620000,-0.031540,
2025-10-16T06:21:38.729380+00:00,3.625000,-0.033820,
2025-10-16T06:21:38.734380+00:00,3.630000,-0.032680,
2025-10-16T06:21:38.739380+00:00,3.635000,-0.040280,
2025-10-16T06:21:38.744380+00:00,3.640000,-0.049780,
2025-10-16T06:21:38.749380+00:00,3.645000,-0.046740,
2025-10-16T06:21:38.754380+00:00,3.650000,-0.038380,
2025-10-16T06:21:38.759380+00:00,3.655000,-0.038760,
2025-10-16T06:21:38.764380+00:00,3.660000,-0.042560,
2025-10-16T06:21:38.769380+00:00,3.665000,-0.039140,
2025-10-16T06:21:38.774380+00:00,3.670000,-0.030780,
2025-10-16T06:21:38.779380+00:00,3.675000,-0.031920,
2025-10-16T06:21:38.784380+00:00,3.680000,-0.041800,
2025-10-16T06:21:38.789380+00:00,3.685000,-0.042940,
2025-10-16T06:21:38.794380+00:00,3.690000,-0.031920,
2025-10-16T06:21:38.799380+00:00,3.695000,-0.034580,
2025-10-16T06:21:38.804380+00:00,3.700000,-0.053580,
2025-10-16T06:21:38.809380+00:00,3.705000,-0.058520,
2025-10-16T06:21:38.814380+00:00,3.710000,-0.036480,
2025-10-16T06:21:38.819380+00:00,3.715000,-0.014820,
2025-10-16T06:21:38.824380+00:00,3.720000,-0.017860,
2025-10-16T06:21:38.829380+00:00,3.725000,-0.037620,
2025-10-16T06:21:38.834380+00:00,3.730000,-0.045600,
2025-10-16T06:21:38.839380+00:00,3.735000,-0.037620,
2025-10-16T06:21:38.844380+00:00,3.740000,-0.025840,
2025-10-16T06:21:38.849380+00:00,3.745000,-0.026600,
2025-10-16T06:21:38.854380+00:00,3.750000,-0.029260,
2025-10-16T06:21:38.859380+00:00,3.755000,-0.025080,
2025-10-16T06:21:38.864380+00:00,3.760000,-0.015580,
2025-10-16T06:21:38.869380+00:00,3.765000,-0.011400,
2025-10-16T06:21:38.874380+00:00,3.770000,-0.020900,
2025-10-16T06:21:38.879380+00:00,3.775000,-0.045980,
2025-10-16T06:21:38.884380+00:00,3.780000,-0.069160,
2025-10-16T06:21:38.889380+00:00,3.785000,-0.075240,
2025-10-16T06:21:38.894380+00:00,3.790000,-0.063080,
2025-10-16T06:21:38.899380+00:00,3.795000,-0.049020,
2025-10-16T06:21:38.904380+00:00,3.800000,-0.037240,
2025-10-16T06:21:38.909380+00:00,3.805000,-0.034960,
2025-10-16T06:21:38.914380+00:00,3.810000,-0.048260,
2025-10-16T06:21:38.919380+00:00,3.815000,-0.064220,
2025-10-16T06:21:38.924380+00:00,3.820000,-0.061560,
2025-10-16T06:21:38.929380+00:00,3.825000,-0.042560,
2025-10-16T06:21:38.934380+00:00,3.830000,-0.024700,
2025-10-16T06:21:38.939380+00:00,3.835000,-0.029640,
2025-10-16T06:21:38.944380+00:00,3.840000,-0.052440,
2025-10-16T06:21:38.949380+00:00,3.845000,-0.064600,
2025-10-16T06:21:38.954380+00:00,3.850000,-0.058140,
2025-10-16T06:21:38.959380+00:00,3.855000,-0.048260,
2025-10-16T06:21:38.964380+00:00,3.860000,-0.048260,
2025-10-16T06:21:38.969380+00:00,3.865000,-0.050920,
2025-10-16T06:21:38.974380+00:00,3.870000,-0.052060,
2025-10-16T06:21:38.979380+00:00,3.875000,-0.058900,
2025-10-16T06:21:38.984380+00:00,3.880000,-0.068780,
2025-10-16T06:21:38.989380+00:00,3.885000,-0.068020,
2025-10-16T06:21:38.994380+00:00,3.890000,-0.050160,
2025-10-16T06:21:38.999380+00:00,3.895000,-0.032300,
2025-10-16T06:21:39.004380+00:00,3.900000,-0.033060,
2025-10-16T06:21:39.009380+00:00,3.905000,-0.047880,
2025-10-16T06:21:39.014380+00:00,3.910000,-0.053200,
2025-10-16T06:21:39.019380+00:00,3.915000,-0.050160,
2025-10-16T06:21:39.024380+00:00,3.920000,-0.052060,
2025-10-16T06:21:39.029380+00:00,3.925000,-0.063080,
2025-10-16T06:21:39.034380+00:00,3.930000,-0.061940,
2025-10-16T06:21:39.039380+00:00,3.935000,-0.045600,
2025-10-16T06:21:39.044380+00:00,3.940000,-0.027360,
2025-10-16T06:21:39.049380+00:00,3.945000,-0.018620,
2025-10-16T06:21:39.054380+00:00,3.950000,-0.014440,
2025-10-16T06:21:39.059380+00:00,3.955000,-0.012920,
2025-10-16T06:21:39.064380+00:00,3.960000,-0.014060,
2025-10-16T06:21:39.069380+00:00,3.965000,-0.019760,
2025-10-16T06:21:39.074380+00:00,3.970000,-0.026980,
2025-10-16T06:21:39.079380+00:00,3.975000,-0.038000,
2025-10-16T06:21:39.084380+00:00,3.980000,-0.055860,
2025-10-16T06:21:39.089380+00:00,3.985000,-0.064220,
2025-10-16T06:21:39.094380+00:00,3.990000,-0.056240,
2025-10-16T06:21:39.099380+00:00,3.995000,-0.039900,
2025-10-16T06:21:39.104380+00:00,4.000000,-0.034960,
2025-10-16T06:21:39.109380+00:00,4.005000,-0.043700,
2025-10-16T06:21:39.114380+00:00,4.010000,-0.049780,
2025-10-16T06:21:39.119380+00:00,4.015000,-0.045980,
2025-10-16T06:21:39.124380+00:00,4.020000,-0.044840,
2025-10-16T06:21:39.129380+00:00,4.025000,-0.047120,
2025-10-16T06:21:39.134380+00:00,4.030000,-0.042940,
2025-10-16T06:21:39.139380+00:00,4.035000,-0.026220,
2025-10-16T06:21:39.144380+00:00,4.040000,-0.014820,
2025-10-16T06:21:39.149380+00:00,4.045000,-0.020900,
2025-10-16T06:21:39.154380+00:00,4.050000,-0.041040,
2025-10-16T06:21:39.159380+00:00,4.055000,-0.044840,
2025-10-16T06:21:39.164380+00:00,4.060000,-0.026980,
2025-10-16T06:21:39.169380+00:00,4.065000,-0.015580,
2025-10-16T06:21:39.174380+00:00,4.070000,-0.026600,
2025-10-16T06:21:39.179380+00:00,4.075000,-0.036100,
2025-10-16T06:21:39.184380+00:00,4.080000,-0.028500,
2025-10-16T06:21:39.189380+00:00,4.085000,-0.015580,
2025-10-16T06:21:39.194380+00:00,4.090000,-0.020140,
2025-10-16T06:21:39.199380+00:00,4.095000,-0.035720,
2025-10-16T06:21:39.204380+00:00,4.100000,-0.041800,
2025-10-16T06:21:39.209380+00:00,4.105000,-0.033440,
2025-10-16T06:21:39.214380+00:00,4.110000,-0.022800,
2025-10-16T06:21:39.219380+00:00,4.115000,-0.024320,
2025-10-16T06:21:39.224380+00:00,4.120000,-0.030780,
2025-10-16T06:21:39.229380+00:00,4.125000,-0.034580,
2025-10-16T06:21:39.234380+00:00,4.130000,-0.033440,
2025-10-16T06:21:39.239380+00:00,4.135000,-0.036100,
2025-10-16T06:21:39.244380+00:00,4.140000,-0.047120,
2025-10-16T06:21:39.249380+00:00,4.145000,-0.061940,
2025-10-16T06:21:39.254380+00:00,4.150000,-0.060420,
2025-10-16T06:21:39.259380+00:00,4.155000,-0.043320,
2025-10-16T06:21:39.264380+00:00,4.160000,-0.028500,
2025-10-16T06:21:39.269380+00:00,4.165000,-0.035720,
2025-10-16T06:21:39.274380+00:00,4.170000,-0.052820,
2025-10-16T06:21:39.279380+00:00,4.175000,-0.064600,
2025-10-16T06:21:39.284380+00:00,4.180000,-0.060420,
2025-10-16T06:21:39.289380+00:00,4.185000,-0.041040,
2025-10-16T06:21:39.294380+00:00,4.190000,-0.016720,
2025-10-16T06:21:39.299380+00:00,4.195000,-0.006080,
2025-10-16T06:21:39.304380+00:00,4.200000,-0.014820,
2025-10-16T06:21:39.309380+00:00,4.205000,-0.039140,
2025-10-16T06:21:39.314380+00:00,4.210000,-0.064980,
2025-10-16T06:21:39.319380+00:00,4.215000,-0.078280,
2025-10-16T06:21:39.324380+00:00,4.220000,-0.071820,
2025-10-16T06:21:39.329380+00:00,4.225000,-0.049400,
2025-10-16T06:21:39.334380+00:00,4.230000,-0.020520,
2025-10-16T06:21:39.339380+00:00,4.235000,-0.012160,
2025-10-16T06:21:39.344380+00:00,4.240000,-0.023940,
2025-10-16T06:21:39.349380+00:00,4.245000,-0.037620,
2025-10-16T06:21:39.354380+00:00,4.250000,-0.041040,
2025-10-16T06:21:39.359380+00:00,4.255000,-0.046360,
2025-10-16T06:21:39.364380+00:00,4.260000,-0.055480,
2025-10-16T06:21:39.369380+00:00,4.265000,-0.058520,
2025-10-16T06:21:39.374380+00:00,4.270000,-0.052440,
2025-10-16T06:21:39.379380+00:00,4.275000,-0.050160,
2025-10-16T06:21:39.384380+00:00,4.280000,-0.056240,
2025-10-16T06:21:39.389380+00:00,4.285000,-0.060800,
2025-10-16T06:21:39.394380+00:00,4.290000,-0.048260,
2025-10-16T06:21:39.399380+00:00,4.295000,-0.035720,
2025-10-16T06:21:39.404380+00:00,4.300000,-0.038760,
2025-10-16T06:21:39.409380+00:00,4.305000,-0.042940,
2025-10-16T06:21:39.414380+00:00,4.310000,-0.029640,
2025-10-16T06:21:39.419380+00:00,4.315000,-0.015200,
2025-10-16T06:21:39.424380+00:00,4.320000,-0.022420,
2025-10-16T06:21:39.429380+00:00,4.325000,-0.043700,
2025-10-16T06:21:39.434380+00:00,4.330000,-0.052820,
2025-10-16T06:21:39.439380+00:00,4.335000,-0.045600,
2025-10-16T06:21:39.444380+00:00,4.340000,-0.042940,
2025-10-16T06:21:39.449380+00:00,4.345000,-0.051680,
2025-10-16T06:21:39.454380+00:00,4.350000,-0.056240,
2025-10-16T06:21:39.459380+00:00,4.355000,-0.050160,
2025-10-16T06:21:39.464380+00:00,4.360000,-0.042180,
2025-10-16T06:21:39.469380+00:00,4.365000,-0.042180,
2025-10-16T06:21:39.474380+00:00,4.370000,-0.049400,
2025-10-16T06:21:39.479380+00:00,4.375000,-0.055480,
2025-10-16T06:21:39.484380+00:00,4.380000,-0.063460,
2025-10-16T06:21:39.489380+00:00,4.385000,-0.068780,
2025-10-16T06:21:39.494380+00:00,4.390000,-0.063840,
2025-10-16T06:21:39.499380+00:00,4.395000,-0.044460,
2025-10-16T06:21:39.504380+00:00,4.400000,-0.025080,
2025-10-16T06:21:39.509380+00:00,4.405000,-0.025840,
2025-10-16T06:21:39.514380+00:00,4.410000,-0.049020,
2025-10-16T06:21:39.519380+00:00,4.415000,-0.061180,
2025-10-16T06:21:39.524380+00:00,4.420000,-0.044460,
2025-10-16T06:21:39.529380+00:00,4.425000,-0.021280,
2025-10-16T06:21:39.534380+00:00,4.430000,-0.020140,
2025-10-16T06:21:39.539380+00:00,4.435000,-0.029640,
2025-10-16T06:21:39.544380+00:00,4.440000,-0.025840,
2025-10-16T06:21:39.549380+00:00,4.445000,-0.012920,
2025-10-16T06:21:39.554380+00:00,4.450000,-0.014820,
2025-10-16T06:21:39.559380+00:00,4.455000,-0.026980,
2025-10-16T06:21:39.564380+00:00,4.460000,-0.030780,
2025-10-16T06:21:39.569380+00:00,4.465000,-0.017480,
2025-10-16T06:21:39.574380+00:00,4.470000,-0.010260,
2025-10-16T06:21:39.579380+00:00,4.475000,-0.021660,
2025-10-16T06:21:39.584380+00:00,4.480000,-0.039900,
2025-10-16T06:21:39.589380+00:00,4.485000,-0.052060,
2025-10-16T06:21:39.594380+00:00,4.490000,-0.059660,
2025-10-16T06:21:39.599380+00:00,4.495000,-0.061940,
2025-10-16T06:21:39.604380+00:00,4.500000,-0.057760,
2025-10-16T06:21:39.609380+00:00,4.505000,-0.036860,
2025-10-16T06:21:39.614380+00:00,4.510000,-0.009500,
2025-10-16T06:21:39.619380+00:00,4.515000,0.002660,
2025-10-16T06:21:39.624380+00:00,4.520000,-0.001520,
2025-10-16T06:21:39.629380+00:00,4.525000,-0.010640,
2025-10-16T06:21:39.634380+00:00,4.530000,-0.017480,
2025-10-16T06:21:39.639380+00:00,4.535000,-0.028120,
2025-10-16T06:21:39.644380+00:00,4.540000,-0.040280,
2025-10-16T06:21:39.649380+00:00,4.545000,-0.044080,
2025-10-16T06:21:39.654380+00:00,4.550000,-0.034200,
2025-10-16T06:21:39.659380+00:00,4.555000,-0.023180,
2025-10-16T06:21:39.664380+00:00,4.560000,-0.022800,
2025-10-16T06:21:39.669380+00:00,4.565000,-0.025080,
2025-10-16T06:21:39.674380+00:00,4.570000,-0.017860,
2025-10-16T06:21:39.679380+00:00,4.575000,-0.013680,
2025-10-16T06:21:39.684380+00:00,4.580000,-0.020900,
2025-10-16T06:21:39.689380+00:00,4.585000,-0.036860,
2025-10-16T06:21:39.694380+00:00,4.590000,-0.053580,
2025-10-16T06:21:39.699380+00:00,4.595000,-0.061560,
2025-10-16T06:21:39.704380+00:00,4.600000,-0.057760,
2025-10-16T06:21:39.709380+00:00,4.605000,-0.044460,
2025-10-16T06:21:39.714380+00:00,4.610000,-0.031540,
2025-10-16T06:21:39.719380+00:00,4.615000,-0.031540,
2025-10-16T06:21:39.724380+00:00,4.620000,-0.042560,
2025-10-16T06:21:39.729380+00:00,4.625000,-0.045980,
2025-10-16T06:21:39.734380+00:00,4.630000,-0.037240,
2025-10-16T06:21:39.739380+00:00,4.635000,-0.031920,
2025-10-16T06:21:39.744380+00:00,4.640000,-0.039140,
2025-10-16T06:21:39.749380+00:00,4.645000,-0.045220,
2025-10-16T06:21:39.754380+00:00,4.650000,-0.038760,
2025-10-16T06:21:39.759380+00:00,4.655000,-0.026600,
2025-10-16T06:21:39.764380+00:00,4.660000,-0.024700,
2025-10-16T06:21:39.769380+00:00,4.665000,-0.039900,
2025-10-16T06:21:39.774380+00:00,4.670000,-0.057760,
2025-10-16T06:21:39.779380+00:00,4.675000,-0.063840,
2025-10-16T06:21:39.784380+00:00,4.680000,-0.060040,
2025-10-16T06:21:39.789380+00:00,4.685000,-0.054720,
2025-10-16T06:21:39.794380+00:00,4.690000,-0.053200,
2025-10-16T06:21:39.799380+00:00,4.695000,-0.053200,
2025-10-16T06:21:39.804380+00:00,4.700000,-0.052060,
2025-10-16T06:21:39.809380+00:00,4.705000,-0.048260,
2025-10-16T06:21:39.814380+00:00,4.710000,-0.046360,
2025-10-16T06:21:39.819380+00:00,4.715000,-0.049780,
2025-10-16T06:21:39.824380+00:00,4.720000,-0.054340,
2025-10-16T06:21:39.829380+00:00,4.725000,-0.052820,
2025-10-16T06:21:39.834380+00:00,4.730000,-0.048260,
2025-10-16T06:21:39.839380+00:00,4.735000,-0.045220,
2025-10-16T06:21:39.844380+00:00,4.740000,-0.046740,
2025-10-16T06:21:39.849380+00:00,4.745000,-0.042940,
2025-10-16T06:21:39.854380+00:00,4.750000,-0.033820,
2025-10-16T06:21:39.859380+00:00,4.755000,-0.030780,
2025-10-16T06:21:39.864380+00:00,4.760000,-0.041800,
2025-10-16T06:21:39.869380+00:00,4.765000,-0.053200,
2025-10-16T06:21:39.874380+00:00,4.770000,-0.046360,
2025-10-16T06:21:39.879380+00:00,4.775000,-0.036480,
2025-10-16T06:21:39.884380+00:00,4.780000,-0.045220,
2025-10-16T06:21:39.889380+00:00,4.785000,-0.060420,
2025-10-16T06:21:39.894380+00:00,4.790000,-0.064600,
2025-10-16T06:21:39.899380+00:00,4.795000,-0.054340,
2025-10-16T06:21:39.904380+00:00,4.800000,-0.041420,
2025-10-16T06:21:39.909380+00:00,4.805000,-0.030780,
2025-10-16T06:21:39.914380+00:00,4.810000,-0.028880,
2025-10-16T06:21:39.919380+00:00,4.815000,-0.036480,
2025-10-16T06:21:39.924380+00:00,4.820000,-0.050920,
2025-10-16T06:21:39.929380+00:00,4.825000,-0.055100,
2025-10-16T06:21:39.934380+00:00,4.830000,-0.038380,
2025-10-16T06:21:39.939380+00:00,4.835000,-0.022040,
2025-10-16T06:21:39.944380+00:00,4.840000,-0.029260,
2025-10-16T06:21:39.949380+00:00,4.845000,-0.046360,
2025-10-16T06:21:39.954380+00:00,4.850000,-0.055860,
2025-10-16T06:21:39.959380+00:00,4.855000,-0.053960,
2025-10-16T06:21:39.964380+00:00,4.860000,-0.052440,
2025-10-16T06:21:39.969380+00:00,4.865000,-0.049780,
2025-10-16T06:21:39.974380+00:00,4.870000,-0.039140,
2025-10-16T06:21:39.979380+00:00,4.875000,-0.026600,
2025-10-16T06:21:39.984380+00:00,4.880000,-0.020140,
2025-10-16T06:21:39.989380+00:00,4.885000,-0.024700,
2025-10-16T06:21:39.994380+00:00,4.890000,-0.035340,
2025-10-16T06:21:39.999380+00:00,4.895000,-0.046360,
2025-10-16T06:21:40.004380+00:00,4.900000,-0.050920,
2025-10-16T06:21:40.009380+00:00,4.905000,-0.049400,
2025-10-16T06:21:40.014380+00:00,4.910000,-0.047880,
2025-10-16T06:21:40.019380+00:00,4.915000,-0.048640,
2025-10-16T06:21:40.024380+00:00,4.920000,-0.049400,
2025-10-16T06:21:40.029380+00:00,4.925000,-0.038760,
2025-10-16T06:21:40.034380+00:00,4.930000,-0.022420,
2025-10-16T06:21:40.039380+00:00,4.935000,-0.014820,
2025-10-16T06:21:40.044380+00:00,4.940000,-0.025080,
2025-10-16T06:21:40.049380+00:00,4.945000,-0.036480,
2025-10-16T06:21:40.054380+00:00,4.950000,-0.038000,
2025-10-16T06:21:40.059380+00:00,4.955000,-0.032300,
2025-10-16T06:21:40.064380+00:00,4.960000,-0.029260,
2025-10-16T06:21:40.069380+00:00,4.965000,-0.028120,
2025-10-16T06:21:40.074380+00:00,4.970000,-0.029640,
2025-10-16T06:21:40.079380+00:00,4.975000,-0.031920,
2025-10-16T06:21:40.084380+00:00,4.980000,-0.035340,
2025-10-16T06:21:40.089380+00:00,4.985000,-0.035340,
2025-10-16T06:21:40.094380+00:00,4.990000,-0.034580,
2025-10-16T06:21:40.099380+00:00,4.995000,-0.039900,
2025-10-16T06:21:40.104380+00:00,5.000000,-0.049780,
2025-10-16T06:21:40.109380+00:00,5.005000,-0.056240,
2025-10-16T06:21:40.114380+00:00,5.010000,-0.061940,
2025-10-16T06:21:40.119380+00:00,5.015000,-0.069160,
2025-10-16T06:21:40.124380+00:00,5.020000,-0.070680,
2025-10-16T06:21:40.129380+00:00,5.025000,-0.056620,
2025-10-16T06:21:40.134380+00:00,5.030000,-0.036100,
2025-10-16T06:21:40.139380+00:00,5.035000,-0.028120,
2025-10-16T06:21:40.144380+00:00,5.040000,-0.028500,
2025-10-16T06:21:40.149380+00:00,5.045000,-0.025460,
2025-10-16T06:21:40.154380+00:00,5.050000,-0.017860,
2025-10-16T06:21:40.159380+00:00,5.055000,-0.015960,
2025-10-16T06:21:40.164380+00:00,5.060000,-0.023180,
2025-10-16T06:21:40.169380+00:00,5.065000,-0.034580,
2025-10-16T06:21:40.174380+00:00,5.070000,-0.041800,
2025-10-16T06:21:40.179380+00:00,5.075000,-0.043700,
2025-10-16T06:21:40.184380+00:00,5.080000,-0.044080,
2025-10-16T06:21:40.189380+00:00,5.085000,-0.044460,
2025-10-16T06:21:40.194380+00:00,5.090000,-0.040660,
2025-10-16T06:21:40.199380+00:00,5.095000,-0.033060,
2025-10-16T06:21:40.204380+00:00,5.100000,-0.025080,
2025-10-16T06:21:40.209380+00:00,5.105000,-0.023180,
2025-10-16T06:21:40.214380+00:00,5.110000,-0.034200,
2025-10-16T06:21:40.219380+00:00,5.115000,-0.046740,
2025-10-16T06:21:40.224380+00:00,5.120000,-0.050160,
2025-10-16T06:21:40.229380+00:00,5.125000,-0.045220,
2025-10-16T06:21:40.234380+00:00,5.130000,-0.033060,
2025-10-16T06:21:40.239380+00:00,5.135000,-0.021660,
2025-10-16T06:21:40.244380+00:00,5.140000,-0.023560,
2025-10-16T06:21:40.249380+00:00,5.145000,-0.032300,
2025-10-16T06:21:40.254380+00:00,5.150000,-0.033440,
2025-10-16T06:21:40.259380+00:00,5.155000,-0.029640,
2025-10-16T06:21:40.264380+00:00,5.160000,-0.027740,
2025-10-16T06:21:40.269380+00:00,5.165000,-0.036100,
2025-10-16T06:21:40.274380+00:00,5.170000,-0.054720,
2025-10-16T06:21:40.279380+00:00,5.175000,-0.064980,
2025-10-16T06:21:40.284380+00:00,5.180000,-0.051680,
2025-10-16T06:21:40.289380+00:00,5.185000,-0.023560,
2025-10-16T06:21:40.294380+00:00,5.190000,-0.010640,
2025-10-16T06:21:40.299380+00:00,5.195000,-0.023560,
2025-10-16T06:21:40.304380+00:00,5.200000,-0.044840,
2025-10-16T06:21:40.309380+00:00,5.205000,-0.053200,
2025-10-16T06:21:40.314380+00:00,5.210000,-0.052440,
2025-10-16T06:21:40.319380+00:00,5.215000,-0.053580,
2025-10-16T06:21:40.324380+00:00,5.220000,-0.054340,
2025-10-16T06:21:40.329380+00:00,5.225000,-0.042180,
2025-10-16T06:21:40.334380+00:00,5.230000,-0.031160,
2025-10-16T06:21:40.339380+00:00,5.235000,-0.034960,
2025-10-16T06:21:40.344380+00:00,5.240000,-0.044840,
2025-10-16T06:21:40.349380+00:00,5.245000,-0.039140,
2025-10-16T06:21:40.354380+00:00,5.250000,-0.031920,
2025-10-16T06:21:40.359380+00:00,5.255000,-0.045980,
2025-10-16T06:21:40.364380+00:00,5.260000,-0.071820,
2025-10-16T06:21:40.369380+00:00,5.265000,-0.079800,
2025-10-16T06:21:40.374380+00:00,5.270000,-0.060420,
2025-10-16T06:21:40.379380+00:00,5.275000,-0.031540,
2025-10-16T06:21:40.384380+00:00,5.280000,-0.018620,
2025-10-16T06:21:40.389380+00:00,5.285000,-0.031540,
2025-10-16T06:21:40.394380+00:00,5.290000,-0.048640,
2025-10-16T06:21:40.399380+00:00,5.295000,-0.050540,
2025-10-16T06:21:40.404380+00:00,5.300000,-0.038000,
2025-10-16T06:21:40.409380+00:00,5.305000,-0.027740,
2025-10-16T06:21:40.414380+00:00,5.310000,-0.028500,
2025-10-16T06:21:40.419380+00:00,5.315000,-0.034580,
2025-10-16T06:21:40.424380+00:00,5.320000,-0.028880,
2025-10-16T06:21:40.429380+00:00,5.325000,-0.015960,
2025-10-16T06:21:40.434380+00:00,5.330000,-0.020900,
2025-10-16T06:21:40.439380+00:00,5.335000,-0.042560,
2025-10-16T06:21:40.444380+00:00,5.340000,-0.053960,
2025-10-16T06:21:40.449380+00:00,5.345000,-0.050160,
2025-10-16T06:21:40.454380+00:00,5.350000,-0.042560,
2025-10-16T06:21:40.459380+00:00,5.355000,-0.034960,
2025-10-16T06:21:40.464380+00:00,5.360000,-0.030400,
2025-10-16T06:21:40.469380+00:00,5.365000,-0.028120,
2025-10-16T06:21:40.474380+00:00,5.370000,-0.034580,
2025-10-16T06:21:40.479380+00:00,5.375000,-0.052440,
2025-10-16T06:21:40.484380+00:00,5.380000,-0.067260,
2025-10-16T06:21:40.489380+00:00,5.385000,-0.063460,
2025-10-16T06:21:40.494380+00:00,5.390000,-0.045220,
2025-10-16T06:21:40.499380+00:00,5.395000,-0.031160,
2025-10-16T06:21:40.504380+00:00,5.400000,-0.028500,
2025-10-16T06:21:40.509380+00:00,5.405000,-0.042180,
2025-10-16T06:21:40.514380+00:00,5.410000,-0.063460,
2025-10-16T06:21:40.519380+00:00,5.415000,-0.063080,
2025-10-16T06:21:40.524380+00:00,5.420000,-0.033060,
2025-10-16T06:21:40.529380+00:00,5.425000,-0.003800,
2025-10-16T06:21:40.534380+00:00,5.430000,-0.000760,
2025-10-16T06:21:40.539380+00:00,5.435000,-0.020520,
2025-10-16T06:21:40.544380+00:00,5.440000,-0.041420,
2025-10-16T06:21:40.549380+00:00,5.445000,-0.044460,
2025-10-16T06:21:40.554380+00:00,5.450000,-0.037620,
2025-10-16T06:21:40.559380+00:00,5.455000,-0.037240,
2025-10-16T06:21:40.564380+00:00,5.460000,-0.048640,
2025-10-16T06:21:40.569380+00:00,5.465000,-0.059660,
2025-10-16T06:21:40.574380+00:00,5.470000,-0.057380,
2025-10-16T06:21:40.579380+00:00,5.475000,-0.036860,
2025-10-16T06:21:40.584380+00:00,5.480000,-0.015580,
2025-10-16T06:21:40.589380+00:00,5.485000,-0.015960,
2025-10-16T06:21:40.594380+00:00,5.490000,-0.034580,
2025-10-16T06:21:40.599380+00:00,5.495000,-0.054720,
2025-10-16T06:21:40.604380+00:00,5.500000,-0.066120,
2025-10-16T06:21:40.609380+00:00,5.505000,-0.068020,
2025-10-16T06:21:40.614380+00:00,5.510000,-0.064220,
2025-10-16T06:21:40.619380+00:00,5.515000,-0.050160,
2025-10-16T06:21:40.624380+00:00,5.520000,-0.035340,
2025-10-16T06:21:40.629380+00:00,5.525000,-0.029640,
2025-10-16T06:21:40.634380+00:00,5.530000,-0.036480,
2025-10-16T06:21:40.639380+00:00,5.535000,-0.042560,
2025-10-16T06:21:40.644380+00:00,5.540000,-0.039520,
2025-10-16T06:21:40.649380+00:00,5.545000,-0.026600,
2025-10-16T06:21:40.654380+00:00,5.550000,-0.013300,
2025-10-16T06:21:40.659380+00:00,5.555000,-0.004180,
2025-10-16T06:21:40.664380+00:00,5.560000,-0.001520,
2025-10-16T06:21:40.669380+00:00,5.565000,-0.000760,
2025-10-16T06:21:40.674380+00:00,5.570000,0.000000,
2025-10-16T06:21:40.679380+00:00,5.575000,-0.004180,
2025-10-16T06:21:40.684380+00:00,5.580000,-0.021660,
2025-10-16T06:21:40.689380+00:00,5.585000,-0.047880,
2025-10-16T06:21:40.694380+00:00,5.590000,-0.065360,
2025-10-16T06:21:40.699380+00:00,5.595000,-0.061180,
2025-10-16T06:21:40.704380+00:00,5.600000,-0.041040,
2025-10-16T06:21:40.709380+00:00,5.605000,-0.023180,
2025-10-16T06:21:40.714380+00:00,5.610000,-0.022040,
2025-10-16T06:21:40.719380+00:00,5.615000,-0.038760,
2025-10-16T06:21:40.724380+00:00,5.620000,-0.055860,
2025-10-16T06:21:40.729380+00:00,5.625000,-0.061180,
2025-10-16T06:21:40.734380+00:00,5.630000,-0.053580,
2025-10-16T06:21:40.739380+00:00,5.635000,-0.042560,
2025-10-16T06:21:40.744380+00:00,5.640000,-0.035720,
2025-10-16T06:21:40.749380+00:00,5.645000,-0.033440,
2025-10-16T06:21:40.754380+00:00,5.650000,-0.030400,
2025-10-16T06:21:40.759380+00:00,5.655000,-0.032680,
2025-10-16T06:21:40.764380+00:00,5.660000,-0.045980,
2025-10-16T06:21:40.769380+00:00,5.665000,-0.060420,
2025-10-16T06:21:40.774380+00:00,5.670000,-0.064220,
2025-10-16T06:21:40.779380+00:00,5.675000,-0.054720,
2025-10-16T06:21:40.784380+00:00,5.680000,-0.036480,
2025-10-16T06:21:40.789380+00:00,5.685000,-0.014440,
2025-10-16T06:21:40.794380+00:00,5.690000,-0.003800,
2025-10-16T06:21:40.799380+00:00,5.695000,-0.014060,
2025-10-16T06:21:40.804380+00:00,5.700000,-0.036860,
2025-10-16T06:21:40.809380+00:00,5.705000,-0.052060,
2025-10-16T06:21:40.814380+00:00,5.710000,-0.053960,
2025-10-16T06:21:40.819380+00:00,5.715000,-0.044840,
2025-10-16T06:21:40.824380+00:00,5.720000,-0.036100,
2025-10-16T06:21:40.829380+00:00,5.725000,-0.034960,
2025-10-16T06:21:40.834380+00:00,5.730000,-0.045220,
2025-10-16T06:21:40.839380+00:00,5.735000,-0.061560,
2025-10-16T06:21:40.844380+00:00,5.740000,-0.063460,
2025-10-16T06:21:40.849380+00:00,5.745000,-0.041800,
2025-10-16T06:21:40.854380+00:00,5.750000,-0.022040,
2025-10-16T06:21:40.859380+00:00,5.755000,-0.032300,
2025-10-16T06:21:40.864380+00:00,5.760000,-0.051680,
2025-10-16T06:21:40.869380+00:00,5.765000,-0.053580,
2025-10-16T06:21:40.874380+00:00,5.770000,-0.038380,
2025-10-16T06:21:40.879380+00:00,5.775000,-0.032300,
2025-10-16T06:21:40.884380+00:00,5.780000,-0.034960,
2025-10-16T06:21:40.889380+00:00,5.785000,-0.034200,
2025-10-16T06:21:40.894380+00:00,5.790000,-0.036100,
2025-10-16T06:21:40.899380+00:00,5.795000,-0.045220,
2025-10-16T06:21:40.904380+00:00,5.800000,-0.049780,
2025-10-16T06:21:40.909380+00:00,5.805000,-0.037620,
2025-10-16T06:21:40.914380+00:00,5.810000,-0.020900,
2025-10-16T06:21:40.919380+00:00,5.815000,-0.013300,
2025-10-16T06:21:40.924380+00:00,5.820000,-0.023180,
2025-10-16T06:21:40.929380+00:00,5.825000,-0.035720,
2025-10-16T06:21:40.934380+00:00,5.830000,-0.042560,
2025-10-16T06:21:40.939380+00:00,5.835000,-0.046740,
2025-10-16T06:21:40.944380+00:00,5.840000,-0.045600,
2025-10-16T06:21:40.949380+00:00,5.845000,-0.038380,
2025-10-16T06:21:40.954380+00:00,5.850000,-0.039520,
2025-10-16T06:21:40.959380+00:00,5.855000,-0.051300,
2025-10-16T06:21:40.964380+00:00,5.860000,-0.063460,
2025-10-16T06:21:40.969380+00:00,5.865000,-0.062320,
2025-10-16T06:21:40.974380+00:00,5.870000,-0.048260,
2025-10-16T06:21:40.979380+00:00,5.875000,-0.033820,
2025-10-16T06:21:40.984380+00:00,5.880000,-0.033440,
2025-10-16T06:21:40.989380+00:00,5.885000,-0.042560,
2025-10-16T06:21:40.994380+00:00,5.890000,-0.055100,
2025-10-16T06:21:40.999380+00:00,5.895000,-0.066500,
2025-10-16T06:21:41.004380+00:00,5.900000,-0.070680,
2025-10-16T06:21:41.009380+00:00,5.905000,-0.065740,
2025-10-16T06:21:41.014380+00:00,5.910000,-0.058520,
2025-10-16T06:21:41.019380+00:00,5.915000,-0.054720,
2025-10-16T06:21:41.024380+00:00,5.920000,-0.055480,
2025-10-16T06:21:41.029380+00:00,5.925000,-0.059660,
2025-10-16T06:21:41.034380+00:00,5.930000,-0.058900,
2025-10-16T06:21:41.039380+00:00,5.935000,-0.053200,
2025-10-16T06:21:41.044380+00:00,5.940000,-0.047880,
2025-10-16T06:21:41.049380+00:00,5.945000,-0.047500,
2025-10-16T06:21:41.054380+00:00,5.950000,-0.043320,
2025-10-16T06:21:41.059380+00:00,5.955000,-0.038380,
2025-10-16T06:21:41.064380+00:00,5.960000,-0.041040,
2025-10-16T06:21:41.069380+00:00,5.965000,-0.051680,
2025-10-16T06:21:41.074380+00:00,5.970000,-0.058520,
2025-10-16T06:21:41.079380+00:00,5.975000,-0.059280,
2025-10-16T06:21:41.084380+00:00,5.980000,-0.053200,
2025-10-16T06:21:41.089380+00:00,5.985000,-0.053960,
2025-10-16T06:21:41.094380+00:00,5.990000,-0.056240,
2025-10-16T06:21:41.099380+00:00,5.995000,-0.044840,
2025-10-16T06:21:41.104380+00:00,6.000000,-0.020140,
2025-10-16T06:21:41.109380+00:00,6.005000,-0.003040,
2025-10-16T06:21:41.114380+00:00,6.010000,-0.004560,
2025-10-16T06:21:41.119380+00:00,6.015000,-0.016720,
2025-10-16T06:21:41.124380+00:00,6.020000,-0.031160,
2025-10-16T06:21:41.129380+00:00,6.025000,-0.037240,
2025-10-16T06:21:41.134380+00:00,6.030000,-0.032300,
2025-10-16T06:21:41.139380+00:00,6.035000,-0.030780,
2025-10-16T06:21:41.144380+00:00,6.040000,-0.036100,
2025-10-16T06:21:41.149380+00:00,6.045000,-0.041800,
2025-10-16T06:21:41.154380+00:00,6.050000,-0.044080,
2025-10-16T06:21:41.159380+00:00,6.055000,-0.045980,
2025-10-16T06:21:41.164380+00:00,6.060000,-0.050540,
2025-10-16T06:21:41.169380+00:00,6.065000,-0.050540,
2025-10-16T06:21:41.174380+00:00,6.070000,-0.046360,
2025-10-16T06:21:41.179380+00:00,6.075000,-0.040660,
2025-10-16T06:21:41.184380+00:00,6.080000,-0.026600,
2025-10-16T06:21:41.189380+00:00,6.085000,-0.010640,
2025-10-16T06:21:41.194380+00:00,6.090000,-0.010260,
2025-10-16T06:21:41.199380+00:00,6.095000,-0.024700,
2025-10-16T06:21:41.204380+00:00,6.100000,-0.038000,
2025-10-16T06:21:41.209380+00:00,6.105000,-0.039900,
2025-10-16T06:21:41.214380+00:00,6.110000,-0.039140,
2025-10-16T06:21:41.219380+00:00,6.115000,-0.046740,
2025-10-16T06:21:41.224380+00:00,6.120000,-0.061560,
2025-10-16T06:21:41.229380+00:00,6.125000,-0.067640,
2025-10-16T06:21:41.234380+00:00,6.130000,-0.063080,
2025-10-16T06:21:41.239380+00:00,6.135000,-0.057380,
2025-10-16T06:21:41.244380+00:00,6.140000,-0.044840,
2025-10-16T06:21:41.249380+00:00,6.145000,-0.032680,
2025-10-16T06:21:41.254380+00:00,6.150000,-0.034960,
2025-10-16T06:21:41.259380+00:00,6.155000,-0.046360,
2025-10-16T06:21:41.264380+00:00,6.160000,-0.040280,
2025-10-16T06:21:41.269380+00:00,6.165000,-0.019380,
2025-10-16T06:21:41.274380+00:00,6.170000,-0.013300,
2025-10-16T06:21:41.279380+00:00,6.175000,-0.030780,
2025-10-16T06:21:41.284380+00:00,6.180000,-0.050920,
2025-10-16T06:21:41.289380+00:00,6.185000,-0.056620,
2025-10-16T06:21:41.294380+00:00,6.190000,-0.050920,
2025-10-16T06:21:41.299380+00:00,6.195000,-0.048260,
2025-10-16T06:21:41.304380+00:00,6.200000,-0.047500,
2025-10-16T06:21:41.309380+00:00,6.205000,-0.042180,
2025-10-16T06:21:41.314380+00:00,6.210000,-0.041040,
2025-10-16T06:21:41.319380+00:00,6.215000,-0.051680,
2025-10-16T06:21:41.324380+00:00,6.220000,-0.063080,
2025-10-16T06:21:41.329380+00:00,6.225000,-0.064980,
2025-10-16T06:21:41.334380+00:00,6.230000,-0.061560,
2025-10-16T06:21:41.339380+00:00,6.235000,-0.055480,
2025-10-16T06:21:41.344380+00:00,6.240000,-0.046360,
2025-10-16T06:21:41.349380+00:00,6.245000,-0.032300,
2025-10-16T06:21:41.354380+00:00,6.250000,-0.027740,
2025-10-16T06:21:41.359380+00:00,6.255000,-0.039520,
2025-10-16T06:21:41.364380+00:00,6.260000,-0.053960,
2025-10-16T06:21:41.369380+00:00,6.265000,-0.045220,
2025-10-16T06:21:41.374380+00:00,6.270000,-0.015200,
2025-10-16T06:21:41.379380+00:00,6.275000,0.006460,
2025-10-16T06:21:41.384380+00:00,6.280000,0.003420,
2025-10-16T06:21:41.389380+00:00,6.285000,-0.017100,
2025-10-16T06:21:41.394380+00:00,6.290000,-0.036480,
2025-10-16T06:21:41.399380+00:00,6.295000,-0.042180,
2025-10-16T06:21:41.404380+00:00,6.300000,-0.045600,
2025-10-16T06:21:41.409380+00:00,6.305000,-0.055100,
2025-10-16T06:21:41.414380+00:00,6.310000,-0.065360,
2025-10-16T06:21:41.419380+00:00,6.315000,-0.066500,
2025-10-16T06:21:41.424380+00:00,6.320000,-0.061560,
2025-10-16T06:21:41.429380+00:00,6.325000,-0.051300,
2025-10-16T06:21:41.434380+00:00,6.330000,-0.034200,
2025-10-16T06:21:41.439380+00:00,6.335000,-0.020520,
2025-10-16T06:21:41.444380+00:00,6.340000,-0.015960,
2025-10-16T06:21:41.449380+00:00,6.345000,-0.019380,
2025-10-16T06:21:41.454380+00:00,6.350000,-0.025840,
2025-10-16T06:21:41.459380+00:00,6.355000,-0.030020,
2025-10-16T06:21:41.464380+00:00,6.360000,-0.027740,
2025-10-16T06:21:41.469380+00:00,6.365000,-0.026220,
2025-10-16T06:21:41.474380+00:00,6.370000,-0.032300,
2025-10-16T06:21:41.479380+00:00,6.375000,-0.043320,
2025-10-16T06:21:41.484380+00:00,6.380000,-0.049780,
2025-10-16T06:21:41.489380+00:00,6.385000,-0.041420,
2025-10-16T06:21:41.494380+00:00,6.390000,-0.030020,
2025-10-16T06:21:41.499380+00:00,6.395000,-0.030780,
2025-10-16T06:21:41.504380+00:00,6.400000,-0.043320,
2025-10-16T06:21:41.509380+00:00,6.405000,-0.044460,
2025-10-16T06:21:41.514380+00:00,6.410000,-0.029260,
2025-10-16T06:21:41.519380+00:00,6.415000,-0.027360,
2025-10-16T06:21:41.524380+00:00,6.420000,-0.048640,
2025-10-16T06:21:41.529380+00:00,6.425000,-0.066500,
2025-10-16T06:21:41.534380+00:00,6.430000,-0.064980,
2025-10-16T06:21:41.539380+00:00,6.435000,-0.050920,
2025-10-16T06:21:41.544380+00:00,6.440000,-0.043700,
2025-10-16T06:21:41.549380+00:00,6.445000,-0.046360,
2025-10-16T06:21:41.554380+00:00,6.450000,-0.050920,
2025-10-16T06:21:41.559380+00:00,6.455000,-0.053200,
2025-10-16T06:21:41.564380+00:00,6.460000,-0.052440,
2025-10-16T06:21:41.569380+00:00,6.465000,-0.050920,
2025-10-16T06:21:41.574380+00:00,6.470000,-0.046740,
2025-10-16T06:21:41.579380+00:00,6.475000,-0.044460,
2025-10-16T06:21:41.584380+00:00,6.480000,-0.044080,
2025-10-16T06:21:41.589380+00:00,6.485000,-0.047500,
2025-10-16T06:21:41.594380+00:00,6.490000,-0.060420,
2025-10-16T06:21:41.599380+00:00,6.495000,-0.069540,
2025-10-16T06:21:41.604380+00:00,6.500000,-0.048640,
2025-10-16T06:21:41.609380+00:00,6.505000,-0.009500,
2025-10-16T06:21:41.614380+00:00,6.510000,0.001520,
2025-10-16T06:21:41.619380+00:00,6.515000,-0.023180,
2025-10-16T06:21:41.624380+00:00,6.520000,-0.045220,
2025-10-16T06:21:41.629380+00:00,6.525000,-0.049400,
2025-10-16T06:21:41.634380+00:00,6.530000,-0.049400,
2025-10-16T06:21:41.639380+00:00,6.535000,-0.050540,
2025-10-16T06:21:41.644380+00:00,6.540000,-0.042180,
2025-10-16T06:21:41.649380+00:00,6.545000,-0.026600,
2025-10-16T06:21:41.654380+00:00,6.550000,-0.031540,
2025-10-16T06:21:41.659380+00:00,6.555000,-0.055480,
2025-10-16T06:21:41.664380+00:00,6.560000,-0.059660,
2025-10-16T06:21:41.669380+00:00,6.565000,-0.039900,
2025-10-16T06:21:41.674380+00:00,6.570000,-0.030780,
2025-10-16T06:21:41.679380+00:00,6.575000,-0.053580,
2025-10-16T06:21:41.684380+00:00,6.580000,-0.079420,
2025-10-16T06:21:41.689380+00:00,6.585000,-0.076380,
2025-10-16T06:21:41.694380+00:00,6.590000,-0.054340,
2025-10-16T06:21:41.699380+00:00,6.595000,-0.037240,
2025-10-16T06:21:41.704380+00:00,6.600000,-0.026980,
2025-10-16T06:21:41.709380+00:00,6.605000,-0.020900,
2025-10-16T06:21:41.714380+00:00,6.610000,-0.023940,
2025-10-16T06:21:41.719380+00:00,6.615000,-0.036100,
2025-10-16T06:21:41.724380+00:00,6.620000,-0.047880,
2025-10-16T06:21:41.729380+00:00,6.625000,-0.050540,
2025-10-16T06:21:41.734380+00:00,6.630000,-0.041420,
2025-10-16T06:21:41.739380+00:00,6.635000,-0.032680,
2025-10-16T06:21:41.744380+00:00,6.640000,-0.036480,
2025-10-16T06:21:41.749380+00:00,6.645000,-0.052060,
2025-10-16T06:21:41.754380+00:00,6.650000,-0.061940,
2025-10-16T06:21:41.759380+00:00,6.655000,-0.058520,
2025-10-16T06:21:41.764380+00:00,6.660000,-0.045980,
2025-10-16T06:21:41.769380+00:00,6.665000,-0.039140,
2025-10-16T06:21:41.774380+00:00,6.670000,-0.043700,
2025-10-16T06:21:41.779380+00:00,6.675000,-0.054720,
2025-10-16T06:21:41.784380+00:00,6.680000,-0.049400,
2025-10-16T06:21:41.789380+00:00,6.685000,-0.026600,
2025-10-16T06:21:41.794380+00:00,6.690000,-0.013680,
2025-10-16T06:21:41.799380+00:00,6.695000,-0.026220,
2025-10-16T06:21:41.804380+00:00,6.700000,-0.045600,
2025-10-16T06:21:41.809380+00:00,6.705000,-0.050540,
2025-10-16T06:21:41.814380+00:00,6.710000,-0.039520,
2025-10-16T06:21:41.819380+00:00,6.715000,-0.033820,
2025-10-16T06:21:41.824380+00:00,6.720000,-0.042560,
2025-10-16T06:21:41.829380+00:00,6.725000,-0.057000,
2025-10-16T06:21:41.834380+00:00,6.730000,-0.061940,
2025-10-16T06:21:41.839380+00:00,6.735000,-0.061560,
2025-10-16T06:21:41.844380+00:00,6.740000,-0.061560,
2025-10-16T06:21:41.849380+00:00,6.745000,-0.055860,
2025-10-16T06:21:41.854380+00:00,6.750000,-0.045600,
2025-10-16T06:21:41.859380+00:00,6.755000,-0.042180,
2025-10-16T06:21:41.864380+00:00,6.760000,-0.053200,
2025-10-16T06:21:41.869380+00:00,6.765000,-0.069160,
2025-10-16T06:21:41.874380+00:00,6.770000,-0.077520,
2025-10-16T06:21:41.879380+00:00,6.775000,-0.063080,
2025-10-16T06:21:41.884380+00:00,6.780000,-0.040280,
2025-10-16T06:21:41.889380+00:00,6.785000,-0.031160,
2025-10-16T06:21:41.894380+00:00,6.790000,-0.031540,
2025-10-16T06:21:41.899380+00:00,6.795000,-0.023560,
2025-10-16T06:21:41.904380+00:00,6.800000,-0.004560,
2025-10-16T06:21:41.909380+00:00,6.805000,0.004180,
2025-10-16T06:21:41.914380+00:00,6.810000,-0.009500,
2025-10-16T06:21:41.919380+00:00,6.815000,-0.033440,
2025-10-16T06:21:41.924380+00:00,6.820000,-0.048260,
2025-10-16T06:21:41.929380+00:00,6.825000,-0.046740,
2025-10-16T06:21:41.934380+00:00,6.830000,-0.033440,
2025-10-16T06:21:41.939380+00:00,6.835000,-0.013680,
2025-10-16T06:21:41.944380+00:00,6.840000,-0.002660,
2025-10-16T06:21:41.949380+00:00,6.845000,-0.007600,
2025-10-16T06:21:41.954380+00:00,6.850000,-0.022800,
2025-10-16T06:21:41.959380+00:00,6.855000,-0.037240,
2025-10-16T06:21:41.964380+00:00,6.860000,-0.045980,
2025-10-16T06:21:41.969380+00:00,6.865000,-0.054720,
2025-10-16T06:21:41.974380+00:00,6.870000,-0.054720,
2025-10-16T06:21:41.979380+00:00,6.875000,-0.044080,
2025-10-16T06:21:41.984380+00:00,6.880000,-0.034200,
2025-10-16T06:21:41.989380+00:00,6.885000,-0.038000,
2025-10-16T06:21:41.994380+00:00,6.890000,-0.053580,
2025-10-16T06:21:41.999380+00:00,6.895000,-0.066880,
2025-10-16T06:21:42.004380+00:00,6.900000,-0.067640,
2025-10-16T06:21:42.009380+00:00,6.905000,-0.055480,
2025-10-16T06:21:42.014380+00:00,6.910000,-0.035720,
2025-10-16T06:21:42.019380+00:00,6.915000,-0.022800,
2025-10-16T06:21:42.024380+00:00,6.920000,-0.025840,
2025-10-16T06:21:42.029380+00:00,6.925000,-0.039140,
2025-10-16T06:21:42.034380+00:00,6.930000,-0.048260,
2025-10-16T06:21:42.039380+00:00,6.935000,-0.044460,
2025-10-16T06:21:42.044380+00:00,6.940000,-0.035340,
2025-10-16T06:21:42.049380+00:00,6.945000,-0.028880,
2025-10-16T06:21:42.054380+00:00,6.950000,-0.029260,
2025-10-16T06:21:42.059380+00:00,6.955000,-0.038760,
2025-10-16T06:21:42.064380+00:00,6.960000,-0.050920,
2025-10-16T06:21:42.069380+00:00,6.965000,-0.057380,
2025-10-16T06:21:42.074380+00:00,6.970000,-0.061940,
2025-10-16T06:21:42.079380+00:00,6.975000,-0.075240,
2025-10-16T06:21:42.084380+00:00,6.980000,-0.087400,
2025-10-16T06:21:42.089380+00:00,6.985000,-0.074860,
2025-10-16T06:21:42.094380+00:00,6.990000,-0.044080,
2025-10-16T06:21:42.099380+00:00,6.995000,-0.027360,
2025-10-16T06:21:42.104380+00:00,7.000000,-0.034200,
2025-10-16T06:21:42.109380+00:00,7.005000,-0.041800,
2025-10-16T06:21:42.114380+00:00,7.010000,-0.031920,
2025-10-16T06:21:42.119380+00:00,7.015000,-0.022040,
2025-10-16T06:21:42.124380+00:00,7.020000,-0.033440,
2025-10-16T06:21:42.129380+00:00,7.025000,-0.047500,
2025-10-16T06:21:42.134380+00:00,7.030000,-0.043320,
2025-10-16T06:21:42.139380+00:00,7.035000,-0.032680,
2025-10-16T06:21:42.144380+00:00,7.040000,-0.034580,
2025-10-16T06:21:42.149380+00:00,7.045000,-0.052820,
2025-10-16T06:21:42.154380+00:00,7.050000,-0.073340,
2025-10-16T06:21:42.159380+00:00,7.055000,-0.083220,
2025-10-16T06:21:42.164380+00:00,7.060000,-0.076760,
2025-10-16T06:21:42.169380+00:00,7.065000,-0.056620,
2025-10-16T06:21:42.174380+00:00,7.070000,-0.030780,
2025-10-16T06:21:42.179380+00:00,7.075000,-0.019000,
2025-10-16T06:21:42.184380+00:00,7.080000,-0.029260,
2025-10-16T06:21:42.189380+00:00,7.085000,-0.045600,
2025-10-16T06:21:42.194380+00:00,7.090000,-0.045980,
2025-10-16T06:21:42.199380+00:00,7.095000,-0.041800,
2025-10-16T06:21:42.204380+00:00,7.100000,-0.044080,
2025-10-16T06:21:42.209380+00:00,7.105000,-0.050920,
2025-10-16T06:21:42.214380+00:00,7.110000,-0.048260,
2025-10-16T06:21:42.219380+00:00,7.115000,-0.033060,
2025-10-16T06:21:42.224380+00:00,7.120000,-0.022040,
2025-10-16T06:21:42.229380+00:00,7.125000,-0.031920,
2025-10-16T06:21:42.234380+00:00,7.130000,-0.055480,
2025-10-16T06:21:42.239380+00:00,7.135000,-0.070300,
2025-10-16T06:21:42.244380+00:00,7.140000,-0.070300,
2025-10-16T06:21:42.249380+00:00,7.145000,-0.069920,
2025-10-16T06:21:42.254380+00:00,7.150000,-0.071820,
2025-10-16T06:21:42.259380+00:00,7.155000,-0.068400,
2025-10-16T06:21:42.264380+00:00,7.160000,-0.055100,
2025-10-16T06:21:42.269380+00:00,7.165000,-0.050540,
2025-10-16T06:21:42.274380+00:00,7.170000,-0.070680,
2025-10-16T06:21:42.279380+00:00,7.175000,-0.100700,
2025-10-16T06:21:42.284380+00:00,7.180000,-0.099180,
2025-10-16T06:21:42.289380+00:00,7.185000,-0.069540,
2025-10-16T06:21:42.294380+00:00,7.190000,-0.050920,
2025-10-16T06:21:42.299380+00:00,7.195000,-0.057000,
2025-10-16T06:21:42.304380+00:00,7.200000,-0.067640,
2025-10-16T06:21:42.309380+00:00,7.205000,-0.063080,
2025-10-16T06:21:42.314380+00:00,7.210000,-0.045980,
2025-10-16T06:21:42.319380+00:00,7.215000,-0.034960,
2025-10-16T06:21:42.324380+00:00,7.220000,-0.035720,
2025-10-16T06:21:42.329380+00:00,7.225000,-0.037240,
2025-10-16T06:21:42.334380+00:00,7.230000,-0.031540,
2025-10-16T06:21:42.339380+00:00,7.235000,-0.023180,
2025-10-16T06:21:42.344380+00:00,7.240000,-0.018240,
2025-10-16T06:21:42.349380+00:00,7.245000,-0.022800,
2025-10-16T06:21:42.354380+00:00,7.250000,-0.036480,
2025-10-16T06:21:42.359380+00:00,7.255000,-0.049400,
2025-10-16T06:21:42.364380+00:00,7.260000,-0.046360,
2025-10-16T06:21:42.369380+00:00,7.265000,-0.036100,
2025-10-16T06:21:42.374380+00:00,7.270000,-0.020140,
2025-10-16T06:21:42.379380+00:00,7.275000,-0.012160,
2025-10-16T06:21:42.384380+00:00,7.280000,-0.015960,
2025-10-16T06:21:42.389380+00:00,7.285000,-0.030020,
2025-10-16T06:21:42.394380+00:00,7.290000,-0.049400,
2025-10-16T06:21:42.399380+00:00,7.295000,-0.064600,
2025-10-16T06:21:42.404380+00:00,7.300000,-0.062700,
2025-10-16T06:21:42.409380+00:00,7.305000,-0.042560,
2025-10-16T06:21:42.414380+00:00,7.310000,-0.022040,
2025-10-16T06:21:42.419380+00:00,7.315000,-0.026220,
2025-10-16T06:21:42.424380+00:00,7.320000,-0.048260,
2025-10-16T06:21:42.429380+00:00,7.325000,-0.059280,
2025-10-16T06:21:42.434380+00:00,7.330000,-0.049400,
2025-10-16T06:21:42.439380+00:00,7.335000,-0.026980,
2025-10-16T06:21:42.444380+00:00,7.340000,-0.009500,
2025-10-16T06:21:42.449380+00:00,7.345000,-0.004940,
2025-10-16T06:21:42.454380+00:00,7.350000,-0.016340,
2025-10-16T06:21:42.459380+00:00,7.355000,-0.041800,
2025-10-16T06:21:42.464380+00:00,7.360000,-0.063840,
2025-10-16T06:21:42.469380+00:00,7.365000,-0.065740,
2025-10-16T06:21:42.474380+00:00,7.370000,-0.052060,
2025-10-16T06:21:42.479380+00:00,7.375000,-0.039900,
2025-10-16T06:21:42.484380+00:00,7.380000,-0.031920,
2025-10-16T06:21:42.489380+00:00,7.385000,-0.015200,
2025-10-16T06:21:42.494380+00:00,7.390000,-0.004940,
2025-10-16T06:21:42.499380+00:00,7.395000,-0.018620,
2025-10-16T06:21:42.504380+00:00,7.400000,-0.043700,
2025-10-16T06:21:42.509380+00:00,7.405000,-0.055100,
2025-10-16T06:21:42.514380+00:00,7.410000,-0.049400,
2025-10-16T06:21:42.519380+00:00,7.415000,-0.045980,
2025-10-16T06:21:42.524380+00:00,7.420000,-0.050540,
2025-10-16T06:21:42.529380+00:00,7.425000,-0.047120,
2025-10-16T06:21:42.534380+00:00,7.430000,-0.038760,
2025-10-16T06:21:42.539380+00:00,7.435000,-0.039140,
2025-10-16T06:21:42.544380+00:00,7.440000,-0.052060,
2025-10-16T06:21:42.549380+00:00,7.445000,-0.063460,
2025-10-16T06:21:42.554380+00:00,7.450000,-0.060800,
2025-10-16T06:21:42.559380+00:00,7.455000,-0.042940,
2025-10-16T06:21:42.564380+00:00,7.460000,-0.027740,
2025-10-16T06:21:42.569380+00:00,7.465000,-0.027360,
2025-10-16T06:21:42.574380+00:00,7.470000,-0.031160,
2025-10-16T06:21:42.579380+00:00,7.475000,-0.023560,
2025-10-16T06:21:42.584380+00:00,7.480000,-0.009500,
2025-10-16T06:21:42.589380+00:00,7.485000,-0.010640,
2025-10-16T06:21:42.594380+00:00,7.490000,-0.033820,
2025-10-16T06:21:42.599380+00:00,7.495000,-0.052440,
2025-10-16T06:21:42.604380+00:00,7.500000,-0.049780,
2025-10-16T06:21:42.609380+00:00,7.505000,-0.038760,
2025-10-16T06:21:42.614380+00:00,7.510000,-0.036100,
2025-10-16T06:21:42.619380+00:00,7.515000,-0.039520,
2025-10-16T06:21:42.624380+00:00,7.520000,-0.034200,
2025-10-16T06:21:42.629380+00:00,7.525000,-0.030780,
2025-10-16T06:21:42.634380+00:00,7.530000,-0.042180,
2025-10-16T06:21:42.639380+00:00,7.535000,-0.056240,
2025-10-16T06:21:42.644380+00:00,7.540000,-0.055100,
2025-10-16T06:21:42.649380+00:00,7.545000,-0.035340,
2025-10-16T06:21:42.654380+00:00,7.550000,-0.017860,
2025-10-16T06:21:42.659380+00:00,7.555000,-0.015960,
2025-10-16T06:21:42.664380+00:00,7.560000,-0.029640,
2025-10-16T06:21:42.669380+00:00,7.565000,-0.045220,
2025-10-16T06:21:42.674380+00:00,7.570000,-0.055480,
2025-10-16T06:21:42.679380+00:00,7.575000,-0.057760,
2025-10-16T06:21:42.684380+00:00,7.580000,-0.055480,
2025-10-16T06:21:42.689380+00:00,7.585000,-0.044080,
2025-10-16T06:21:42.694380+00:00,7.590000,-0.029260,
2025-10-16T06:21:42.699380+00:00,7.595000,-0.023560,
2025-10-16T06:21:42.704380+00:00,7.600000,-0.032680,
2025-10-16T06:21:42.709380+00:00,7.605000,-0.032300,
2025-10-16T06:21:42.714380+00:00,7.610000,-0.018620,
2025-10-16T06:21:42.719380+00:00,7.615000,-0.008360,
2025-10-16T06:21:42.724380+00:00,7.620000,-0.013300,
2025-10-16T06:21:42.729380+00:00,7.625000,-0.026220,
2025-10-16T06:21:42.734380+00:00,7.630000,-0.033820,
2025-10-16T06:21:42.739380+00:00,7.635000,-0.037240,
2025-10-16T06:21:42.744380+00:00,7.640000,-0.045220,
2025-10-16T06:21:42.749380+00:00,7.645000,-0.053580,
2025-10-16T06:21:42.754380+00:00,7.650000,-0.051680,
2025-10-16T06:21:42.759380+00:00,7.655000,-0.039900,
2025-10-16T06:21:42.764380+00:00,7.660000,-0.032300,
2025-10-16T06:21:42.769380+00:00,7.665000,-0.039900,
2025-10-16T06:21:42.774380+00:00,7.670000,-0.055100,
2025-10-16T06:21:42.779380+00:00,7.675000,-0.064600,
2025-10-16T06:21:42.784380+00:00,7.680000,-0.057000,
2025-10-16T06:21:42.789380+00:00,7.685000,-0.047500,
2025-10-16T06:21:42.794380+00:00,7.690000,-0.046740,
2025-10-16T06:21:42.799380+00:00,7.695000,-0.048640,
2025-10-16T06:21:42.804380+00:00,7.700000,-0.039140,
2025-10-16T06:21:42.809380+00:00,7.705000,-0.031160,
2025-10-16T06:21:42.814380+00:00,7.710000,-0.034200,
2025-10-16T06:21:42.819380+00:00,7.715000,-0.052820,
2025-10-16T06:21:42.824380+00:00,7.720000,-0.065360,
2025-10-16T06:21:42.829380+00:00,7.725000,-0.060800,
2025-10-16T06:21:42.834380+00:00,7.730000,-0.047500,
2025-10-16T06:21:42.839380+00:00,7.735000,-0.036860,
2025-10-16T06:21:42.844380+00:00,7.740000,-0.030400,
2025-10-16T06:21:42.849380+00:00,7.745000,-0.024700,
2025-10-16T06:21:42.854380+00:00,7.750000,-0.023940,
2025-10-16T06:21:42.859380+00:00,7.755000,-0.031920,
2025-10-16T06:21:42.864380+00:00,7.760000,-0.035340,
2025-10-16T06:21:42.869380+00:00,7.765000,-0.025080,
2025-10-16T06:21:42.874380+00:00,7.770000,-0.009500,
2025-10-16T06:21:42.879380+00:00,7.775000,-0.008740,
2025-10-16T06:21:42.884380+00:00,7.780000,-0.025080,
2025-10-16T06:21:42.889380+00:00,7.785000,-0.041800,
2025-10-16T06:21:42.894380+00:00,7.790000,-0.046360,
2025-10-16T06:21:42.899380+00:00,7.795000,-0.033060,
2025-10-16T06:21:42.904380+00:00,7.800000,-0.015960,
2025-10-16T06:21:42.909380+00:00,7.805000,-0.009880,
2025-10-16T06:21:42.914380+00:00,7.810000,-0.020140,
2025-10-16T06:21:42.919380+00:00,7.815000,-0.031160,
2025-10-16T06:21:42.924380+00:00,7.820000,-0.033820,
2025-10-16T06:21:42.929380+00:00,7.825000,-0.030020,
2025-10-16T06:21:42.934380+00:00,7.830000,-0.031540,
2025-10-16T06:21:42.939380+00:00,7.835000,-0.041420,
2025-10-16T06:21:42.944380+00:00,7.840000,-0.039520,
2025-10-16T06:21:42.949380+00:00,7.845000,-0.025460,
2025-10-16T06:21:42.954380+00:00,7.850000,-0.015580,
2025-10-16T06:21:42.959380+00:00,7.855000,-0.022420,
2025-10-16T06:21:42.964380+00:00,7.860000,-0.043700,
2025-10-16T06:21:42.969380+00:00,7.865000,-0.059660,
2025-10-16T06:21:42.974380+00:00,7.870000,-0.053960,
2025-10-16T06:21:42.979380+00:00,7.875000,-0.035340,
2025-10-16T06:21:42.984380+00:00,7.880000,-0.028880,
2025-10-16T06:21:42.989380+00:00,7.885000,-0.037620,
2025-10-16T06:21:42.994380+00:00,7.890000,-0.038760,
2025-10-16T06:21:42.999380+00:00,7.895000,-0.025840,
2025-10-16T06:21:43.004380+00:00,7.900000,-0.014440,
2025-10-16T06:21:43.009380+00:00,7.905000,-0.018240,
2025-10-16T06:21:43.014380+00:00,7.910000,-0.035340,
2025-10-16T06:21:43.019380+00:00,7.915000,-0.050920,
2025-10-16T06:21:43.024380+00:00,7.920000,-0.059280,
2025-10-16T06:21:43.029380+00:00,7.925000,-0.058520,
2025-10-16T06:21:43.034380+00:00,7.930000,-0.047120,
2025-10-16T06:21:43.039380+00:00,7.935000,-0.037620,
2025-10-16T06:21:43.044380+00:00,7.940000,-0.039140,
2025-10-16T06:21:43.049380+00:00,7.945000,-0.039520,
2025-10-16T06:21:43.054380+00:00,7.950000,-0.027360,
2025-10-16T06:21:43.059380+00:00,7.955000,-0.022040,
2025-10-16T06:21:43.064380+00:00,7.960000,-0.040660,
2025-10-16T06:21:43.069380+00:00,7.965000,-0.070680,
2025-10-16T06:21:43.074380+00:00,7.970000,-0.079040,
2025-10-16T06:21:43.079380+00:00,7.975000,-0.056240,
2025-10-16T06:21:43.084380+00:00,7.980000,-0.034580,
2025-10-16T06:21:43.089380+00:00,7.985000,-0.028120,
2025-10-16T06:21:43.094380+00:00,7.990000,-0.031540,
2025-10-16T06:21:43.099380+00:00,7.995000,-0.032300,
2025-10-16T06:21:43.104380+00:00,8.000000,-0.035720,
2025-10-16T06:21:43.109380+00:00,8.005000,-0.045980,
2025-10-16T06:21:43.114380+00:00,8.010000,-0.053200,
2025-10-16T06:21:43.119380+00:00,8.015000,-0.047500,
2025-10-16T06:21:43.124380+00:00,8.020000,-0.037620,
2025-10-16T06:21:43.129380+00:00,8.025000,-0.031160,
2025-10-16T06:21:43.134380+00:00,8.030000,-0.032680,
2025-10-16T06:21:43.139380+00:00,8.035000,-0.029640,
2025-10-16T06:21:43.144380+00:00,8.040000,-0.022420,
2025-10-16T06:21:43.149380+00:00,8.045000,-0.020520,
2025-10-16T06:21:43.154380+00:00,8.050000,-0.030400,
2025-10-16T06:21:43.159380+00:00,8.055000,-0.045220,
2025-10-16T06:21:43.164380+00:00,8.060000,-0.045980,
2025-10-16T06:21:43.169380+00:00,8.065000,-0.036100,
2025-10-16T06:21:43.174380+00:00,8.070000,-0.033060,
2025-10-16T06:21:43.179380+00:00,8.075000,-0.042560,
2025-10-16T06:21:43.184380+00:00,8.080000,-0.049780,
2025-10-16T06:21:43.189380+00:00,8.085000,-0.045220,
2025-10-16T06:21:43.194380+00:00,8.090000,-0.034200,
2025-10-16T06:21:43.199380+00:00,8.095000,-0.030400,
2025-10-16T06:21:43.204380+00:00,8.100000,-0.037620,
2025-10-16T06:21:43.209380+00:00,8.105000,-0.048640,
2025-10-16T06:21:43.214380+00:00,8.110000,-0.049020,
2025-10-16T06:21:43.219380+00:00,8.115000,-0.044460,
2025-10-16T06:21:43.224380+00:00,8.120000,-0.043320,
2025-10-16T06:21:43.229380+00:00,8.125000,-0.054340,
2025-10-16T06:21:43.234380+00:00,8.130000,-0.070300,
2025-10-16T06:21:43.239380+00:00,8.135000,-0.077140,
2025-10-16T06:21:43.244380+00:00,8.140000,-0.063460,
2025-10-16T06:21:43.249380+00:00,8.145000,-0.043320,
2025-10-16T06:21:43.254380+00:00,8.150000,-0.031540,
2025-10-16T06:21:43.259380+00:00,8.155000,-0.031920,
2025-10-16T06:21:43.264380+00:00,8.160000,-0.045980,
2025-10-16T06:21:43.269380+00:00,8.165000,-0.063840,
2025-10-16T06:21:43.274380+00:00,8.170000,-0.068020,
2025-10-16T06:21:43.279380+00:00,8.175000,-0.051680,
2025-10-16T06:21:43.284380+00:00,8.180000,-0.034960,
2025-10-16T06:21:43.289380+00:00,8.185000,-0.038000,
2025-10-16T06:21:43.294380+00:00,8.190000,-0.045980,
2025-10-16T06:21:43.299380+00:00,8.195000,-0.039520,
2025-10-16T06:21:43.304380+00:00,8.200000,-0.028880,
2025-10-16T06:21:43.309380+00:00,8.205000,-0.033820,
2025-10-16T06:21:43.314380+00:00,8.210000,-0.048640,
2025-10-16T06:21:43.319380+00:00,8.215000,-0.053960,
2025-10-16T06:21:43.324380+00:00,8.220000,-0.046360,
2025-10-16T06:21:43.329380+00:00,8.225000,-0.045600,
2025-10-16T06:21:43.334380+00:00,8.230000,-0.050160,
2025-10-16T06:21:43.339380+00:00,8.235000,-0.040660,
2025-10-16T06:21:43.344380+00:00,8.240000,-0.022800,
2025-10-16T06:21:43.349380+00:00,8.245000,-0.017480,
2025-10-16T06:21:43.354380+00:00,8.250000,-0.027740,
2025-10-16T06:21:43.359380+00:00,8.255000,-0.036480,
2025-10-16T06:21:43.364380+00:00,8.260000,-0.034580,
2025-10-16T06:21:43.369380+00:00,8.265000,-0.033440,
2025-10-16T06:21:43.374380+00:00,8.270000,-0.034580,
2025-10-16T06:21:43.379380+00:00,8.275000,-0.035340,
2025-10-16T06:21:43.384380+00:00,8.280000,-0.031920,
2025-10-16T06:21:43.389380+00:00,8.285000,-0.023180,
2025-10-16T06:21:43.394380+00:00,8.290000,-0.018620,
2025-10-16T06:21:43.399380+00:00,8.295000,-0.028120,
2025-10-16T06:21:43.404380+00:00,8.300000,-0.039520,
2025-10-16T06:21:43.409380+00:00,8.305000,-0.028500,
2025-10-16T06:21:43.414380+00:00,8.310000,0.001900,
2025-10-16T06:21:43.419380+00:00,8.315000,0.011780,
2025-10-16T06:21:43.424380+00:00,8.320000,-0.016340,
2025-10-16T06:21:43.429380+00:00,8.325000,-0.053200,
2025-10-16T06:21:43.434380+00:00,8.330000,-0.058140,
2025-10-16T06:21:43.439380+00:00,8.335000,-0.030400,
2025-10-16T06:21:43.444380+00:00,8.340000,-0.009500,
2025-10-16T06:21:43.449380+00:00,8.345000,-0.019380,
2025-10-16T06:21:43.454380+00:00,8.350000,-0.042180,
2025-10-16T06:21:43.459380+00:00,8.355000,-0.041040,
2025-10-16T06:21:43.464380+00:00,8.360000,-0.023180,
2025-10-16T06:21:43.469380+00:00,8.365000,-0.014820,
2025-10-16T06:21:43.474380+00:00,8.370000,-0.024700,
2025-10-16T06:21:43.479380+00:00,8.375000,-0.039900,
2025-10-16T06:21:43.484380+00:00,8.380000,-0.047120,
2025-10-16T06:21:43.489380+00:00,8.385000,-0.046740,
2025-10-16T06:21:43.494380+00:00,8.390000,-0.047880,
2025-10-16T06:21:43.499380+00:00,8.395000,-0.034960,
2025-10-16T06:21:43.504380+00:00,8.400000,-0.011400,
2025-10-16T06:21:43.509380+00:00,8.405000,-0.003040,
2025-10-16T06:21:43.514380+00:00,8.410000,-0.021280,
2025-10-16T06:21:43.519380+00:00,8.415000,-0.041800,
2025-10-16T06:21:43.524380+00:00,8.420000,-0.043320,
2025-10-16T06:21:43.529380+00:00,8.425000,-0.031160,
2025-10-16T06:21:43.534380+00:00,8.430000,-0.025840,
2025-10-16T06:21:43.539380+00:00,8.435000,-0.032680,
2025-10-16T06:21:43.544380+00:00,8.440000,-0.043320,
2025-10-16T06:21:43.549380+00:00,8.445000,-0.049780,
2025-10-16T06:21:43.554380+00:00,8.450000,-0.054340,
2025-10-16T06:21:43.559380+00:00,8.455000,-0.053580,
2025-10-16T06:21:43.564380+00:00,8.460000,-0.050920,
2025-10-16T06:21:43.569380+00:00,8.465000,-0.050920,
2025-10-16T06:21:43.574380+00:00,8.470000,-0.051300,
2025-10-16T06:21:43.579380+00:00,8.475000,-0.045220,
2025-10-16T06:21:43.584380+00:00,8.480000,-0.040660,
2025-10-16T06:21:43.589380+00:00,8.485000,-0.042560,
2025-10-16T06:21:43.594380+00:00,8.490000,-0.045220,
2025-10-16T06:21:43.599380+00:00,8.495000,-0.033820,
2025-10-16T06:21:43.604380+00:00,8.500000,-0.016720,
2025-10-16T06:21:43.609380+00:00,8.505000,-0.013300,
2025-10-16T06:21:43.614380+00:00,8.510000,-0.030400,
2025-10-16T06:21:43.619380+00:00,8.515000,-0.055860,
2025-10-16T06:21:43.624380+00:00,8.520000,-0.064600,
2025-10-16T06:21:43.629380+00:00,8.525000,-0.048640,
2025-10-16T06:21:43.634380+00:00,8.530000,-0.028880,
2025-10-16T06:21:43.639380+00:00,8.535000,-0.025080,
2025-10-16T06:21:43.644380+00:00,8.540000,-0.027360,
2025-10-16T06:21:43.649380+00:00,8.545000,-0.023180,
2025-10-16T06:21:43.654380+00:00,8.550000,-0.017860,
2025-10-16T06:21:43.659380+00:00,8.555000,-0.020900,
2025-10-16T06:21:43.664380+00:00,8.560000,-0.033820,
2025-10-16T06:21:43.669380+00:00,8.565000,-0.047120,
2025-10-16T06:21:43.674380+00:00,8.570000,-0.052440,
2025-10-16T06:21:43.679380+00:00,8.575000,-0.047500,
2025-10-16T06:21:43.684380+00:00,8.580000,-0.040660,
2025-10-16T06:21:43.689380+00:00,8.585000,-0.038760,
2025-10-16T06:21:43.694380+00:00,8.590000,-0.048260,
2025-10-16T06:21:43.699380+00:00,8.595000,-0.067260,
2025-10-16T06:21:43.704380+00:00,8.600000,-0.069540,
2025-10-16T06:21:43.709380+00:00,8.605000,-0.044460,
2025-10-16T06:21:43.714380+00:00,8.610000,-0.021280,
2025-10-16T06:21:43.719380+00:00,8.615000,-0.021660,
2025-10-16T06:21:43.724380+00:00,8.620000,-0.035720,
2025-10-16T06:21:43.729380+00:00,8.625000,-0.040660,
2025-10-16T06:21:43.734380+00:00,8.630000,-0.029260,
2025-10-16T06:21:43.739380+00:00,8.635000,-0.015580,
2025-10-16T06:21:43.744380+00:00,8.640000,-0.011400,
2025-10-16T06:21:43.749380+00:00,8.645000,-0.013680,
2025-10-16T06:21:43.754380+00:00,8.650000,-0.018240,
2025-10-16T06:21:43.759380+00:00,8.655000,-0.027740,
2025-10-16T06:21:43.764380+00:00,8.660000,-0.038760,
2025-10-16T06:21:43.769380+00:00,8.665000,-0.045220,
2025-10-16T06:21:43.774380+00:00,8.670000,-0.039520,
2025-10-16T06:21:43.779380+00:00,8.675000,-0.025840,
2025-10-16T06:21:43.784380+00:00,8.680000,-0.014060,
2025-10-16T06:21:43.789380+00:00,8.685000,-0.005700,
2025-10-16T06:21:43.794380+00:00,8.690000,-0.002660,
2025-10-16T06:21:43.799380+00:00,8.695000,-0.013680,
2025-10-16T06:21:43.804380+00:00,8.700000,-0.033440,
2025-10-16T06:21:43.809380+00:00,8.705000,-0.047500,
2025-10-16T06:21:43.814380+00:00,8.710000,-0.052060,
2025-10-16T06:21:43.819380+00:00,8.715000,-0.054720,
2025-10-16T06:21:43.824380+00:00,8.720000,-0.056240,
2025-10-16T06:21:43.829380+00:00,8.725000,-0.053200,
2025-10-16T06:21:43.834380+00:00,8.730000,-0.042940,
2025-10-16T06:21:43.839380+00:00,8.735000,-0.037620,
2025-10-16T06:21:43.844380+00:00,8.740000,-0.039140,
2025-10-16T06:21:43.849380+00:00,8.745000,-0.040280,
2025-10-16T06:21:43.854380+00:00,8.750000,-0.026980,
2025-10-16T06:21:43.859380+00:00,8.755000,-0.009500,
2025-10-16T06:21:43.864380+00:00,8.760000,-0.003800,
2025-10-16T06:21:43.869380+00:00,8.765000,-0.012540,
2025-10-16T06:21:43.874380+00:00,8.770000,-0.023180,
2025-10-16T06:21:43.879380+00:00,8.775000,-0.022800,
2025-10-16T06:21:43.884380+00:00,8.780000,-0.016340,
2025-10-16T06:21:43.889380+00:00,8.785000,-0.022420,
2025-10-16T06:21:43.894380+00:00,8.790000,-0.045980,
2025-10-16T06:21:43.899380+00:00,8.795000,-0.063460,
2025-10-16T06:21:43.904380+00:00,8.800000,-0.055480,
2025-10-16T06:21:43.909380+00:00,8.805000,-0.039140,
2025-10-16T06:21:43.914380+00:00,8.810000,-0.043700,
2025-10-16T06:21:43.919380+00:00,8.815000,-0.061940,
2025-10-16T06:21:43.924380+00:00,8.820000,-0.066880,
2025-10-16T06:21:43.929380+00:00,8.825000,-0.053960,
2025-10-16T06:21:43.934380+00:00,8.830000,-0.045980,
2025-10-16T06:21:43.939380+00:00,8.835000,-0.049020,
2025-10-16T06:21:43.944380+00:00,8.840000,-0.045600,
2025-10-16T06:21:43.949380+00:00,8.845000,-0.043700,
2025-10-16T06:21:43.954380+00:00,8.850000,-0.058140,
2025-10-16T06:21:43.959380+00:00,8.855000,-0.077520,
2025-10-16T06:21:43.964380+00:00,8.860000,-0.076380,
2025-10-16T06:21:43.969380+00:00,8.865000,-0.061180,
2025-10-16T06:21:43.974380+00:00,8.870000,-0.052820,
2025-10-16T06:21:43.979380+00:00,8.875000,-0.058520,
2025-10-16T06:21:43.984380+00:00,8.880000,-0.064600,
2025-10-16T06:21:43.989380+00:00,8.885000,-0.060800,
2025-10-16T06:21:43.994380+00:00,8.890000,-0.052440,
2025-10-16T06:21:43.999380+00:00,8.895000,-0.051680,
2025-10-16T06:21:44.004380+00:00,8.900000,-0.049020,
2025-10-16T06:21:44.009380+00:00,8.905000,-0.036480,
2025-10-16T06:21:44.014380+00:00,8.910000,-0.021660,
2025-10-16T06:21:44.019380+00:00,8.915000,-0.016720,
2025-10-16T06:21:44.024380+00:00,8.920000,-0.020900,
2025-10-16T06:21:44.029380+00:00,8.925000,-0.030020,
2025-10-16T06:21:44.034380+00:00,8.930000,-0.044080,
2025-10-16T06:21:44.039380+00:00,8.935000,-0.055860,
2025-10-16T06:21:44.044380+00:00,8.940000,-0.060040,
2025-10-16T06:21:44.049380+00:00,8.945000,-0.059660,
2025-10-16T06:21:44.054380+00:00,8.950000,-0.060040,
2025-10-16T06:21:44.059380+00:00,8.955000,-0.059280,
2025-10-16T06:21:44.064380+00:00,8.960000,-0.048640,
2025-10-16T06:21:44.069380+00:00,8.965000,-0.030400,
2025-10-16T06:21:44.074380+00:00,8.970000,-0.024320,
2025-10-16T06:21:44.079380+00:00,8.975000,-0.038760,
2025-10-16T06:21:44.084380+00:00,8.980000,-0.059660,
2025-10-16T06:21:44.089380+00:00,8.985000,-0.064220,
2025-10-16T06:21:44.094380+00:00,8.990000,-0.057000,
2025-10-16T06:21:44.099380+00:00,8.995000,-0.052820,
2025-10-16T06:21:44.104380+00:00,9.000000,-0.051300,
2025-10-16T06:21:44.109380+00:00,9.005000,-0.041420,
2025-10-16T06:21:44.114380+00:00,9.010000,-0.035340,
2025-10-16T06:21:44.119380+00:00,9.015000,-0.042180,
2025-10-16T06:21:44.124380+00:00,9.020000,-0.053960,
2025-10-16T06:21:44.129380+00:00,9.025000,-0.056620,
2025-10-16T06:21:44.134380+00:00,9.030000,-0.045600,
2025-10-16T06:21:44.139380+00:00,9.035000,-0.030400,
2025-10-16T06:21:44.144380+00:00,9.040000,-0.028880,
2025-10-16T06:21:44.149380+00:00,9.045000,-0.037240,
2025-10-16T06:21:44.154380+00:00,9.050000,-0.041800,
2025-10-16T06:21:44.159380+00:00,9.055000,-0.049400,
2025-10-16T06:21:44.164380+00:00,9.060000,-0.058900,
2025-10-16T06:21:44.169380+00:00,9.065000,-0.053580,
2025-10-16T06:21:44.174380+00:00,9.070000,-0.027360,
2025-10-16T06:21:44.179380+00:00,9.075000,-0.004940,
2025-10-16T06:21:44.184380+00:00,9.080000,-0.007220,
2025-10-16T06:21:44.189380+00:00,9.085000,-0.031160,
2025-10-16T06:21:44.194380+00:00,9.090000,-0.043700,
2025-10-16T06:21:44.199380+00:00,9.095000,-0.032680,
2025-10-16T06:21:44.204380+00:00,9.100000,-0.021660,
2025-10-16T06:21:44.209380+00:00,9.105000,-0.033820,
2025-10-16T06:21:44.214380+00:00,9.110000,-0.052440,
2025-10-16T06:21:44.219380+00:00,9.115000,-0.056620,
2025-10-16T06:21:44.224380+00:00,9.120000,-0.049020,
2025-10-16T06:21:44.229380+00:00,9.125000,-0.047120,
2025-10-16T06:21:44.234380+00:00,9.130000,-0.052440,
2025-10-16T06:21:44.239380+00:00,9.135000,-0.055480,
2025-10-16T06:21:44.244380+00:00,9.140000,-0.047500,
2025-10-16T06:21:44.249380+00:00,9.145000,-0.030780,
2025-10-16T06:21:44.254380+00:00,9.150000,-0.021280,
2025-10-16T06:21:44.259380+00:00,9.155000,-0.029640,
2025-10-16T06:21:44.264380+00:00,9.160000,-0.044840,
2025-10-16T06:21:44.269380+00:00,9.165000,-0.060040,
2025-10-16T06:21:44.274380+00:00,9.170000,-0.070680,
2025-10-16T06:21:44.279380+00:00,9.175000,-0.065740,
2025-10-16T06:21:44.284380+00:00,9.180000,-0.042180,
2025-10-16T06:21:44.289380+00:00,9.185000,-0.020520,
2025-10-16T06:21:44.294380+00:00,9.190000,-0.021660,
2025-10-16T06:21:44.299380+00:00,9.195000,-0.037620,
2025-10-16T06:21:44.304380+00:00,9.200000,-0.048260,
2025-10-16T06:21:44.309380+00:00,9.205000,-0.044080,
2025-10-16T06:21:44.314380+00:00,9.210000,-0.036100,
2025-10-16T06:21:44.319380+00:00,9.215000,-0.037240,
2025-10-16T06:21:44.324380+00:00,9.220000,-0.042560,
2025-10-16T06:21:44.329380+00:00,9.225000,-0.042560,
2025-10-16T06:21:44.334380+00:00,9.230000,-0.033820,
2025-10-16T06:21:44.339380+00:00,9.235000,-0.029640,
2025-10-16T06:21:44.344380+00:00,9.240000,-0.033440,
2025-10-16T06:21:44.349380+00:00,9.245000,-0.037240,
2025-10-16T06:21:44.354380+00:00,9.250000,-0.036860,
2025-10-16T06:21:44.359380+00:00,9.255000,-0.037620,
2025-10-16T06:21:44.364380+00:00,9.260000,-0.046740,
2025-10-16T06:21:44.369380+00:00,9.265000,-0.058140,
2025-10-16T06:21:44.374380+00:00,9.270000,-0.052440,
2025-10-16T06:21:44.379380+00:00,9.275000,-0.031540,
2025-10-16T06:21:44.384380+00:00,9.280000,-0.023180,
2025-10-16T06:21:44.389380+00:00,9.285000,-0.040280,
2025-10-16T06:21:44.394380+00:00,9.290000,-0.052060,
2025-10-16T06:21:44.399380+00:00,9.295000,-0.038760,
2025-10-16T06:21:44.404380+00:00,9.300000,-0.021660,
2025-10-16T06:21:44.409380+00:00,9.305000,-0.028500,
2025-10-16T06:21:44.414380+00:00,9.310000,-0.047880,
2025-10-16T06:21:44.419380+00:00,9.315000,-0.058140,
2025-10-16T06:21:44.424380+00:00,9.320000,-0.053580,
2025-10-16T06:21:44.429380+00:00,9.325000,-0.048640,
2025-10-16T06:21:44.434380+00:00,9.330000,-0.045600,
2025-10-16T06:21:44.439380+00:00,9.335000,-0.042180,
2025-10-16T06:21:44.444380+00:00,9.340000,-0.036100,
2025-10-16T06:21:44.449380+00:00,9.345000,-0.036480,
2025-10-16T06:21:44.454380+00:00,9.350000,-0.037620,
2025-10-16T06:21:44.459380+00:00,9.355000,-0.033440,
2025-10-16T06:21:44.464380+00:00,9.360000,-0.025840,
2025-10-16T06:21:44.469380+00:00,9.365000,-0.030400,
2025-10-16T06:21:44.474380+00:00,9.370000,-0.045600,
2025-10-16T06:21:44.479380+00:00,9.375000,-0.057380,
2025-10-16T06:21:44.484380+00:00,9.380000,-0.055860,
2025-10-16T06:21:44.489380+00:00,9.385000,-0.049400,
2025-10-16T06:21:44.494380+00:00,9.390000,-0.042940,
2025-10-16T06:21:44.499380+00:00,9.395000,-0.042560,
2025-10-16T06:21:44.504380+00:00,9.400000,-0.049780,
2025-10-16T06:21:44.509380+00:00,9.405000,-0.049400,
2025-10-16T06:21:44.514380+00:00,9.410000,-0.033820,
2025-10-16T06:21:44.519380+00:00,9.415000,-0.019760,
2025-10-16T06:21:44.524380+00:00,9.420000,-0.026980,
2025-10-16T06:21:44.529380+00:00,9.425000,-0.040280,
2025-10-16T06:21:44.534380+00:00,9.430000,-0.033440,
2025-10-16T06:21:44.539380+00:00,9.435000,-0.007220,
2025-10-16T06:21:44.544380+00:00,9.440000,0.007600,
2025-10-16T06:21:44.549380+00:00,9.445000,-0.006840,
2025-10-16T06:21:44.554380+00:00,9.450000,-0.026600,
2025-10-16T06:21:44.559380+00:00,9.455000,-0.024700,
2025-10-16T06:21:44.564380+00:00,9.460000,-0.015960,
2025-10-16T06:21:44.569380+00:00,9.465000,-0.021660,
2025-10-16T06:21:44.574380+00:00,9.470000,-0.036100,
2025-10-16T06:21:44.579380+00:00,9.475000,-0.051300,
2025-10-16T06:21:44.584380+00:00,9.480000,-0.057000,
2025-10-16T06:21:44.589380+00:00,9.485000,-0.057380,
2025-10-16T06:21:44.594380+00:00,9.490000,-0.060040,
2025-10-16T06:21:44.599380+00:00,9.495000,-0.061180,
2025-10-16T06:21:44.604380+00:00,9.500000,-0.055480,
2025-10-16T06:21:44.609380+00:00,9.505000,-0.044460,
2025-10-16T06:21:44.614380+00:00,9.510000,-0.037240,
2025-10-16T06:21:44.619380+00:00,9.515000,-0.040660,
2025-10-16T06:21:44.624380+00:00,9.520000,-0.046740,
2025-10-16T06:21:44.629380+00:00,9.525000,-0.048260,
2025-10-16T06:21:44.634380+00:00,9.530000,-0.047500,
2025-10-16T06:21:44.639380+00:00,9.535000,-0.050540,
2025-10-16T06:21:44.644380+00:00,9.540000,-0.050160,
2025-10-16T06:21:44.649380+00:00,9.545000,-0.039520,
2025-10-16T06:21:44.654380+00:00,9.550000,-0.025840,
2025-10-16T06:21:44.659380+00:00,9.555000,-0.025080,
2025-10-16T06:21:44.664380+00:00,9.560000,-0.034580,
2025-10-16T06:21:44.669380+00:00,9.565000,-0.042940,
2025-10-16T06:21:44.674380+00:00,9.570000,-0.045600,
2025-10-16T06:21:44.679380+00:00,9.575000,-0.052440,
2025-10-16T06:21:44.684380+00:00,9.580000,-0.063080,
2025-10-16T06:21:44.689380+00:00,9.585000,-0.063460,
2025-10-16T06:21:44.694380+00:00,9.590000,-0.046360,
2025-10-16T06:21:44.699380+00:00,9.595000,-0.016720,
2025-10-16T06:21:44.704380+00:00,9.600000,-0.001140,
2025-10-16T06:21:44.709380+00:00,9.605000,-0.013300,
2025-10-16T06:21:44.714380+00:00,9.610000,-0.033820,
2025-10-16T06:21:44.719380+00:00,9.615000,-0.041420,
2025-10-16T06:21:44.724380+00:00,9.620000,-0.039900,
2025-10-16T06:21:44.729380+00:00,9.625000,-0.043700,
2025-10-16T06:21:44.734380+00:00,9.630000,-0.050920,
2025-10-16T06:21:44.739380+00:00,9.635000,-0.046740,
2025-10-16T06:21:44.744380+00:00,9.640000,-0.034200,
2025-10-16T06:21:44.749380+00:00,9.645000,-0.022800,
2025-10-16T06:21:44.754380+00:00,9.650000,-0.015960,
2025-10-16T06:21:44.759380+00:00,9.655000,-0.016340,
2025-10-16T06:21:44.764380+00:00,9.660000,-0.026980,
2025-10-16T06:21:44.769380+00:00,9.665000,-0.048260,
2025-10-16T06:21:44.774380+00:00,9.670000,-0.059660,
2025-10-16T06:21:44.779380+00:00,9.675000,-0.044080,
2025-10-16T06:21:44.784380+00:00,9.680000,-0.019000,
2025-10-16T06:21:44.789380+00:00,9.685000,-0.027740,
2025-10-16T06:21:44.794380+00:00,9.690000,-0.065360,
2025-10-16T06:21:44.799380+00:00,9.695000,-0.083600,
2025-10-16T06:21:44.804380+00:00,9.700000,-0.061940,
2025-10-16T06:21:44.809380+00:00,9.705000,-0.026220,
2025-10-16T06:21:44.814380+00:00,9.710000,-0.014820,
2025-10-16T06:21:44.819380+00:00,9.715000,-0.035340,
2025-10-16T06:21:44.824380+00:00,9.720000,-0.061940,
2025-10-16T06:21:44.829380+00:00,9.725000,-0.063460,
2025-10-16T06:21:44.834380+00:00,9.730000,-0.044460,
2025-10-16T06:21:44.839380+00:00,9.735000,-0.033060,
2025-10-16T06:21:44.844380+00:00,9.740000,-0.040280,
2025-10-16T06:21:44.849380+00:00,9.745000,-0.047880,
2025-10-16T06:21:44.854380+00:00,9.750000,-0.042560,
2025-10-16T06:21:44.859380+00:00,9.755000,-0.035720,
2025-10-16T06:21:44.864380+00:00,9.760000,-0.047880,
2025-10-16T06:21:44.869380+00:00,9.765000,-0.064600,
2025-10-16T06:21:44.874380+00:00,9.770000,-0.057760,
2025-10-16T06:21:44.879380+00:00,9.775000,-0.032680,
2025-10-16T06:21:44.884380+00:00,9.780000,-0.023180,
2025-10-16T06:21:44.889380+00:00,9.785000,-0.034200,
2025-10-16T06:21:44.894380+00:00,9.790000,-0.041040,
2025-10-16T06:21:44.899380+00:00,9.795000,-0.038000,
2025-10-16T06:21:44.904380+00:00,9.800000,-0.045600,
2025-10-16T06:21:44.909380+00:00,9.805000,-0.062320,
2025-10-16T06:21:44.914380+00:00,9.810000,-0.068400,
2025-10-16T06:21:44.919380+00:00,9.815000,-0.057380,
2025-10-16T06:21:44.924380+00:00,9.820000,-0.044840,
2025-10-16T06:21:44.929380+00:00,9.825000,-0.039140,
2025-10-16T06:21:44.934380+00:00,9.830000,-0.039520,
2025-10-16T06:21:44.939380+00:00,9.835000,-0.037240,
2025-10-16T06:21:44.944380+00:00,9.840000,-0.039140,
2025-10-16T06:21:44.949380+00:00,9.845000,-0.041800,
2025-10-16T06:21:44.954380+00:00,9.850000,-0.041800,
2025-10-16T06:21:44.959380+00:00,9.855000,-0.041420,
2025-10-16T06:21:44.964380+00:00,9.860000,-0.050920,
2025-10-16T06:21:44.969380+00:00,9.865000,-0.058900,
2025-10-16T06:21:44.974380+00:00,9.870000,-0.053960,
2025-10-16T06:21:44.979380+00:00,9.875000,-0.033440,
2025-10-16T06:21:44.984380+00:00,9.880000,-0.017100,
2025-10-16T06:21:44.989380+00:00,9.885000,-0.017480,
2025-10-16T06:21:44.994380+00:00,9.890000,-0.036100,
2025-10-16T06:21:44.999380+00:00,9.895000,-0.058900,
2025-10-16T06:21:45.004380+00:00,9.900000,-0.065740,
2025-10-16T06:21:45.009380+00:00,9.905000,-0.047500,
2025-10-16T06:21:45.014380+00:00,9.910000,-0.020900,
2025-10-16T06:21:45.019380+00:00,9.915000,-0.007600,
2025-10-16T06:21:45.024380+00:00,9.920000,-0.015580,
2025-10-16T06:21:45.029380+00:00,9.925000,-0.032300,
2025-10-16T06:21:45.034380+00:00,9.930000,-0.043320,
2025-10-16T06:21:45.039380+00:00,9.935000,-0.045220,
2025-10-16T06:21:45.044380+00:00,9.940000,-0.041420,
2025-10-16T06:21:45.049380+00:00,9.945000,-0.028880,
2025-10-16T06:21:45.054380+00:00,9.950000,-0.017100,
2025-10-16T06:21:45.059380+00:00,9.955000,-0.029260,
2025-10-16T06:21:45.064380+00:00,9.960000,-0.063080,
2025-10-16T06:21:45.069380+00:00,9.965000,-0.084360,
2025-10-16T06:21:45.074380+00:00,9.970000,-0.077520,
2025-10-16T06:21:45.079380+00:00,9.975000,-0.065360,
2025-10-16T06:21:45.084380+00:00,9.980000,-0.065360,
2025-10-16T06:21:45.089380+00:00,9.985000,-0.066500,
2025-10-16T06:21:45.094380+00:00,9.990000,-0.056240,
2025-10-16T06:21:45.099380+00:00,9.995000,-0.046360,
2025-10-16T06:21:45.104380+00:00,10.000000,-0.060420,
2025-10-16T06:21:45.109380+00:00,10.005000,-0.081320,
2025-10-16T06:21:45.114380+00:00,10.010000,-0.071440,
2025-10-16T06:21:45.119380+00:00,10.015000,-0.029640,
2025-10-16T06:21:45.124380+00:00,10.020000,-0.002660,
2025-10-16T06:21:45.129380+00:00,10.025000,-0.014060,
2025-10-16T06:21:45.134380+00:00,10.030000,-0.042560,
2025-10-16T06:21:45.139380+00:00,10.035000,-0.056240,
2025-10-16T06:21:45.144380+00:00,10.040000,-0.042560,
2025-10-16T06:21:45.149380+00:00,10.045000,-0.025840,
2025-10-16T06:21:45.154380+00:00,10.050000,-0.031160,
2025-10-16T06:21:45.159380+00:00,10.055000,-0.047880,
2025-10-16T06:21:45.164380+00:00,10.060000,-0.048260,
2025-10-16T06:21:45.169380+00:00,10.065000,-0.034960,
2025-10-16T06:21:45.174380+00:00,10.070000,-0.022420,
2025-10-16T06:21:45.179380+00:00,10.075000,-0.022040,
2025-10-16T06:21:45.184380+00:00,10.080000,-0.030780,
2025-10-16T06:21:45.189380+00:00,10.085000,-0.040660,
2025-10-16T06:21:45.194380+00:00,10.090000,-0.046360,
2025-10-16T06:21:45.199380+00:00,10.095000,-0.050160,
2025-10-16T06:21:45.204380+00:00,10.100000,-0.050540,
2025-10-16T06:21:45.209380+00:00,10.105000,-0.052440,
2025-10-16T06:21:45.214380+00:00,10.110000,-0.054340,
2025-10-16T06:21:45.219380+00:00,10.115000,-0.054720,
2025-10-16T06:21:45.224380+00:00,10.120000,-0.057000,
2025-10-16T06:21:45.229380+00:00,10.125000,-0.056620,
2025-10-16T06:21:45.234380+00:00,10.130000,-0.049780,
2025-10-16T06:21:45.239380+00:00,10.135000,-0.035340,
2025-10-16T06:21:45.244380+00:00,10.140000,-0.028500,
2025-10-16T06:21:45.249380+00:00,10.145000,-0.035340,
2025-10-16T06:21:45.254380+00:00,10.150000,-0.050160,
2025-10-16T06:21:45.259380+00:00,10.155000,-0.059660,
2025-10-16T06:21:45.264380+00:00,10.160000,-0.052440,
2025-10-16T06:21:45.269380+00:00,10.165000,-0.042940,
2025-10-16T06:21:45.274380+00:00,10.170000,-0.042180,
2025-10-16T06:21:45.279380+00:00,10.175000,-0.040280,
2025-10-16T06:21:45.284380+00:00,10.180000,-0.030020,
2025-10-16T06:21:45.289380+00:00,10.185000,-0.017480,
2025-10-16T06:21:45.294380+00:00,10.190000,-0.009120,
2025-10-16T06:21:45.299380+00:00,10.195000,-0.005700,
2025-10-16T06:21:45.304380+00:00,10.200000,-0.004940,
2025-10-16T06:21:45.309380+00:00,10.205000,-0.009880,
2025-10-16T06:21:45.314380+00:00,10.210000,-0.031920,
2025-10-16T06:21:45.319380+00:00,10.215000,-0.066500,
2025-10-16T06:21:45.324380+00:00,10.220000,-0.080940,
2025-10-16T06:21:45.329380+00:00,10.225000,-0.063840,
2025-10-16T06:21:45.334380+00:00,10.230000,-0.044080,
2025-10-16T06:21:45.339380+00:00,10.235000,-0.037240,
2025-10-16T06:21:45.344380+00:00,10.240000,-0.038760,
2025-10-16T06:21:45.349380+00:00,10.245000,-0.041800,
2025-10-16T06:21:45.354380+00:00,10.250000,-0.047880,
2025-10-16T06:21:45.359380+00:00,10.255000,-0.053200,
2025-10-16T06:21:45.364380+00:00,10.260000,-0.052820,
2025-10-16T06:21:45.369380+00:00,10.265000,-0.043700,
2025-10-16T06:21:45.374380+00:00,10.270000,-0.041040,
2025-10-16T06:21:45.379380+00:00,10.275000,-0.054340,
2025-10-16T06:21:45.384380+00:00,10.280000,-0.062700,
2025-10-16T06:21:45.389380+00:00,10.285000,-0.050920,
2025-10-16T06:21:45.394380+00:00,10.290000,-0.028120,COUNT_START|trial=1
2025-10-16T06:21:45.399380+00:00,10.295000,-0.020520,
2025-10-16T06:21:45.404380+00:00,10.300000,-0.034580,
2025-10-16T06:21:45.409380+00:00,10.305000,-0.050540,
2025-10-16T06:21:45.414380+00:00,10.310000,-0.047880,
2025-10-16T06:21:45.419380+00:00,10.315000,-0.031920,
2025-10-16T06:21:45.424380+00:00,10.320000,-0.025840,
2025-10-16T06:21:45.429380+00:00,10.325000,-0.031540,
2025-10-16T06:21:45.434380+00:00,10.330000,-0.033820,
2025-10-16T06:21:45.439380+00:00,10.335000,-0.023560,
2025-10-16T06:21:45.444380+00:00,10.340000,-0.017480,
2025-10-16T06:21:45.449380+00:00,10.345000,-0.025080,
2025-10-16T06:21:45.454380+00:00,10.350000,-0.037620,
2025-10-16T06:21:45.459380+00:00,10.355000,-0.038760,
2025-10-16T06:21:45.464380+00:00,10.360000,-0.028880,
2025-10-16T06:21:45.469380+00:00,10.365000,-0.022420,
2025-10-16T06:21:45.474380+00:00,10.370000,-0.022800,
2025-10-16T06:21:45.479380+00:00,10.375000,-0.024320,
2025-10-16T06:21:45.484380+00:00,10.380000,-0.033820,
2025-10-16T06:21:45.489380+00:00,10.385000,-0.050540,
2025-10-16T06:21:45.494380+00:00,10.390000,-0.058900,
2025-10-16T06:21:45.499380+00:00,10.395000,-0.054720,
2025-10-16T06:21:45.504380+00:00,10.400000,-0.049020,
2025-10-16T06:21:45.509380+00:00,10.405000,-0.047880,
2025-10-16T06:21:45.514380+00:00,10.410000,-0.052440,
2025-10-16T06:21:45.519380+00:00,10.415000,-0.053580,
2025-10-16T06:21:45.524380+00:00,10.420000,-0.049400,
2025-10-16T06:21:45.529380+00:00,10.425000,-0.047880,
2025-10-16T06:21:45.534380+00:00,10.430000,-0.040660,
2025-10-16T06:21:45.539380+00:00,10.435000,-0.028880,
2025-10-16T06:21:45.544380+00:00,10.440000,-0.025080,
2025-10-16T06:21:45.549380+00:00,10.445000,-0.043700,
2025-10-16T06:21:45.554380+00:00,10.450000,-0.068400,
2025-10-16T06:21:45.559380+00:00,10.455000,-0.076000,
2025-10-16T06:21:45.564380+00:00,10.460000,-0.058900,
2025-10-16T06:21:45.569380+00:00,10.465000,-0.033440,
2025-10-16T06:21:45.574380+00:00,10.470000,-0.025080,
2025-10-16T06:21:45.579380+00:00,10.475000,-0.036480,
2025-10-16T06:21:45.584380+00:00,10.480000,-0.045600,
2025-10-16T06:21:45.589380+00:00,10.485000,-0.034200,
2025-10-16T06:21:45.594380+00:00,10.490000,-0.016340,
2025-10-16T06:21:45.599380+00:00,10.495000,-0.014440,
2025-10-16T06:21:45.604380+00:00,10.500000,-0.032300,
2025-10-16T06:21:45.609380+00:00,10.505000,-0.051680,
2025-10-16T06:21:45.614380+00:00,10.510000,-0.058520,
2025-10-16T06:21:45.619380+00:00,10.515000,-0.059660,
2025-10-16T06:21:45.624380+00:00,10.520000,-0.059280,
2025-10-16T06:21:45.629380+00:00,10.525000,-0.053960,
2025-10-16T06:21:45.634380+00:00,10.530000,-0.040660,
2025-10-16T06:21:45.639380+00:00,10.535000,-0.023560,
2025-10-16T06:21:45.644380+00:00,10.540000,-0.018240,
2025-10-16T06:21:45.649380+00:00,10.545000,-0.027740,
2025-10-16T06:21:45.654380+00:00,10.550000,-0.041040,
2025-10-16T06:21:45.659380+00:00,10.555000,-0.038000,
2025-10-16T06:21:45.664380+00:00,10.560000,-0.020900,
2025-10-16T06:21:45.669380+00:00,10.565000,-0.012160,
2025-10-16T06:21:45.674380+00:00,10.570000,-0.027360,
2025-10-16T06:21:45.679380+00:00,10.575000,-0.053580,
2025-10-16T06:21:45.684380+00:00,10.580000,-0.066500,
2025-10-16T06:21:45.689380+00:00,10.585000,-0.058900,
2025-10-16T06:21:45.694380+00:00,10.590000,-0.045980,
2025-10-16T06:21:45.699380+00:00,10.595000,-0.041040,
2025-10-16T06:21:45.704380+00:00,10.600000,-0.044080,
2025-10-16T06:21:45.709380+00:00,10.605000,-0.049780,
2025-10-16T06:21:45.714380+00:00,10.610000,-0.053960,
2025-10-16T06:21:45.719380+00:00,10.615000,-0.054340,
2025-10-16T06:21:45.724380+00:00,10.620000,-0.052820,
2025-10-16T06:21:45.729380+00:00,10.625000,-0.045980,
2025-10-16T06:21:45.734380+00:00,10.630000,-0.043700,
2025-10-16T06:21:45.739380+00:00,10.635000,-0.052440,
2025-10-16T06:21:45.744380+00:00,10.640000,-0.060800,
2025-10-16T06:21:45.749380+00:00,10.645000,-0.056620,
2025-10-16T06:21:45.754380+00:00,10.650000,-0.039520,
2025-10-16T06:21:45.759380+00:00,10.655000,-0.019760,
2025-10-16T06:21:45.764380+00:00,10.660000,-0.016340,
2025-10-16T06:21:45.769380+00:00,10.665000,-0.027740,
2025-10-16T06:21:45.774380+00:00,10.670000,-0.033060,
2025-10-16T06:21:45.779380+00:00,10.675000,-0.029640,
2025-10-16T06:21:45.784380+00:00,10.680000,-0.032680,
2025-10-16T06:21:45.789380+00:00,10.685000,-0.046740,
2025-10-16T06:21:45.794380+00:00,10.690000,-0.063080,
2025-10-16T06:21:45.799380+00:00,10.695000,-0.061940,
2025-10-16T06:21:45.804380+00:00,10.700000,-0.041800,
2025-10-16T06:21:45.809380+00:00,10.705000,-0.022800,
2025-10-16T06:21:45.814380+00:00,10.710000,-0.022420,
2025-10-16T06:21:45.819380+00:00,10.715000,-0.031920,
2025-10-16T06:21:45.824380+00:00,10.720000,-0.032680,
2025-10-16T06:21:45.829380+00:00,10.725000,-0.025460,
2025-10-16T06:21:45.834380+00:00,10.730000,-0.016720,
2025-10-16T06:21:45.839380+00:00,10.735000,-0.017480,
2025-10-16T06:21:45.844380+00:00,10.740000,-0.027740,
2025-10-16T06:21:45.849380+00:00,10.745000,-0.040660,
2025-10-16T06:21:45.854380+00:00,10.750000,-0.055480,
2025-10-16T06:21:45.859380+00:00,10.755000,-0.060040,
2025-10-16T06:21:45.864380+00:00,10.760000,-0.045980,
2025-10-16T06:21:45.869380+00:00,10.765000,-0.027360,
2025-10-16T06:21:45.874380+00:00,10.770000,-0.029640,
2025-10-16T06:21:45.879380+00:00,10.775000,-0.044080,
2025-10-16T06:21:45.884380+00:00,10.780000,-0.048640,
2025-10-16T06:21:45.889380+00:00,10.785000,-0.033440,
2025-10-16T06:21:45.894380+00:00,10.790000,-0.016340,
2025-10-16T06:21:45.899380+00:00,10.795000,-0.016720,
2025-10-16T06:21:45.904380+00:00,10.800000,-0.032680,
2025-10-16T06:21:45.909380+00:00,10.805000,-0.041040,
2025-10-16T06:21:45.914380+00:00,10.810000,-0.035720,
2025-10-16T06:21:45.919380+00:00,10.815000,-0.027360,
2025-10-16T06:21:45.924380+00:00,10.820000,-0.021660,
2025-10-16T06:21:45.929380+00:00,10.825000,-0.017480,
2025-10-16T06:21:45.934380+00:00,10.830000,-0.019380,
2025-10-16T06:21:45.939380+00:00,10.835000,-0.020900,
2025-10-16T06:21:45.944380+00:00,10.840000,-0.019000,
2025-10-16T06:21:45.949380+00:00,10.845000,-0.028120,
2025-10-16T06:21:45.954380+00:00,10.850000,-0.045220,
2025-10-16T06:21:45.959380+00:00,10.855000,-0.048640,
2025-10-16T06:21:45.964380+00:00,10.860000,-0.029260,
2025-10-16T06:21:45.969380+00:00,10.865000,-0.009880,
2025-10-16T06:21:45.974380+00:00,10.870000,-0.023940,
2025-10-16T06:21:45.979380+00:00,10.875000,-0.060420,
2025-10-16T06:21:45.984380+00:00,10.880000,-0.071060,
2025-10-16T06:21:45.989380+00:00,10.885000,-0.044840,
2025-10-16T06:21:45.994380+00:00,10.890000,-0.016720,
2025-10-16T06:21:45.999380+00:00,10.895000,-0.020140,
2025-10-16T06:21:46.004380+00:00,10.900000,-0.039520,
2025-10-16T06:21:46.009380+00:00,10.905000,-0.048640,
2025-10-16T06:21:46.014380+00:00,10.910000,-0.046740,
2025-10-16T06:21:46.019380+00:00,10.915000,-0.050160,
2025-10-16T06:21:46.024380+00:00,10.920000,-0.065360,
2025-10-16T06:21:46.029380+00:00,10.925000,-0.074480,
2025-10-16T06:21:46.034380+00:00,10.930000,-0.057760,
2025-10-16T06:21:46.039380+00:00,10.935000,-0.024320,
2025-10-16T06:21:46.044380+00:00,10.940000,-0.001140,
2025-10-16T06:21:46.049380+00:00,10.945000,-0.010260,
2025-10-16T06:21:46.054380+00:00,10.950000,-0.040280,
2025-10-16T06:21:46.059380+00:00,10.955000,-0.067640,
2025-10-16T06:21:46.064380+00:00,10.960000,-0.079800,
2025-10-16T06:21:46.069380+00:00,10.965000,-0.074480,
2025-10-16T06:21:46.074380+00:00,10.970000,-0.055100,
2025-10-16T06:21:46.079380+00:00,10.975000,-0.037240,
2025-10-16T06:21:46.084380+00:00,10.980000,-0.039140,
2025-10-16T06:21:46.089380+00:00,10.985000,-0.052820,
2025-10-16T06:21:46.094380+00:00,10.990000,-0.055480,
2025-10-16T06:21:46.099380+00:00,10.995000,-0.042560,
2025-10-16T06:21:46.104380+00:00,11.000000,-0.026980,
2025-10-16T06:21:46.109380+00:00,11.005000,-0.023560,
2025-10-16T06:21:46.114380+00:00,11.010000,-0.035720,
2025-10-16T06:21:46.119380+00:00,11.015000,-0.048640,
2025-10-16T06:21:46.124380+00:00,11.020000,-0.050920,
2025-10-16T06:21:46.129380+00:00,11.025000,-0.031920,
2025-10-16T06:21:46.134380+00:00,11.030000,0.001140,
2025-10-16T06:21:46.139380+00:00,11.035000,0.010640,
2025-10-16T06:21:46.144380+00:00,11.040000,-0.013300,
2025-10-16T06:21:46.149380+00:00,11.045000,-0.044840,
2025-10-16T06:21:46.154380+00:00,11.050000,-0.057380,
2025-10-16T06:21:46.159380+00:00,11.055000,-0.057000,
2025-10-16T06:21:46.164380+00:00,11.060000,-0.060040,
2025-10-16T06:21:46.169380+00:00,11.065000,-0.058900,
2025-10-16T06:21:46.174380+00:00,11.070000,-0.046360,
2025-10-16T06:21:46.179380+00:00,11.075000,-0.032300,
2025-10-16T06:21:46.184380+00:00,11.080000,-0.038760,
2025-10-16T06:21:46.189380+00:00,11.085000,-0.062320,
2025-10-16T06:21:46.194380+00:00,11.090000,-0.078280,
2025-10-16T06:21:46.199380+00:00,11.095000,-0.070300,
2025-10-16T06:21:46.204380+00:00,11.100000,-0.035720,
2025-10-16T06:21:46.209380+00:00,11.105000,-0.001520,
2025-10-16T06:21:46.214380+00:00,11.110000,0.000380,
2025-10-16T06:21:46.219380+00:00,11.115000,-0.027360,
2025-10-16T06:21:46.224380+00:00,11.120000,-0.048260,
2025-10-16T06:21:46.229380+00:00,11.125000,-0.044080,
2025-10-16T06:21:46.234380+00:00,11.130000,-0.035340,
2025-10-16T06:21:46.239380+00:00,11.135000,-0.041040,
2025-10-16T06:21:46.244380+00:00,11.140000,-0.053200,
2025-10-16T06:21:46.249380+00:00,11.145000,-0.053960,
2025-10-16T06:21:46.254380+00:00,11.150000,-0.049020,
2025-10-16T06:21:46.259380+00:00,11.155000,-0.052060,
2025-10-16T06:21:46.264380+00:00,11.160000,-0.053200,
2025-10-16T06:21:46.269380+00:00,11.165000,-0.047120,
2025-10-16T06:21:46.274380+00:00,11.170000,-0.039140,
2025-10-16T06:21:46.279380+00:00,11.175000,-0.031540,
2025-10-16T06:21:46.284380+00:00,11.180000,-0.020900,
2025-10-16T06:21:46.289380+00:00,11.185000,-0.012540,
2025-10-16T06:21:46.294380+00:00,11.190000,-0.019000,
2025-10-16T06:21:46.299380+00:00,11.195000,-0.038760,
2025-10-16T06:21:46.304380+00:00,11.200000,-0.044460,
2025-10-16T06:21:46.309380+00:00,11.205000,-0.024700,
2025-10-16T06:21:46.314380+00:00,11.210000,-0.004940,
2025-10-16T06:21:46.319380+00:00,11.215000,-0.017100,
2025-10-16T06:21:46.324380+00:00,11.220000,-0.049400,
2025-10-16T06:21:46.329380+00:00,11.225000,-0.066120,
2025-10-16T06:21:46.334380+00:00,11.230000,-0.057380,
2025-10-16T06:21:46.339380+00:00,11.235000,-0.038000,
2025-10-16T06:21:46.344380+00:00,11.240000,-0.030780,
2025-10-16T06:21:46.349380+00:00,11.245000,-0.033440,
2025-10-16T06:21:46.354380+00:00,11.250000,-0.033060,
2025-10-16T06:21:46.359380+00:00,11.255000,-0.032300,
2025-10-16T06:21:46.364380+00:00,11.260000,-0.037620,
2025-10-16T06:21:46.369380+00:00,11.265000,-0.044080,
2025-10-16T06:21:46.374380+00:00,11.270000,-0.044080,
2025-10-16T06:21:46.379380+00:00,11.275000,-0.044460,
2025-10-16T06:21:46.384380+00:00,11.280000,-0.052060,
2025-10-16T06:21:46.389380+00:00,11.285000,-0.060800,
2025-10-16T06:21:46.394380+00:00,11.290000,-0.062320,
2025-10-16T06:21:46.399380+00:00,11.295000,-0.048640,COUNT_END|trial=1
2025-10-16T06:21:46.404380+00:00,11.300000,-0.027360,
2025-10-16T06:21:46.409380+00:00,11.305000,-0.016720,
2025-10-16T06:21:46.414380+00:00,11.310000,-0.028500,
