timestamp_utc,t_rel_sec,ecg_mV,event
2025-10-24T06:56:34.538940+00:00,0.000000,0.000000,
2025-10-24T06:56:34.543940+00:00,0.005000,0.000000,
2025-10-24T06:56:34.548940+00:00,0.010000,-0.001140,
2025-10-24T06:56:34.553940+00:00,0.015000,0.000000,
2025-10-24T06:56:34.558940+00:00,0.020000,0.015200,
2025-10-24T06:56:34.563940+00:00,0.025000,-0.072200,
2025-10-24T06:56:34.568940+00:00,0.030000,0.004940,
2025-10-24T06:56:34.573940+00:00,0.035000,0.411160,
2025-10-24T06:56:34.578940+00:00,0.040000,-0.541500,
2025-10-24T06:56:34.583940+00:00,0.045000,-1.329240,
2025-10-24T06:56:34.588940+00:00,0.050000,2.045540,
2025-10-24T06:56:34.593940+00:00,0.055000,3.721720,
2025-10-24T06:56:34.598940+00:00,0.060000,-4.046240,
2025-10-24T06:56:34.603940+00:00,0.065000,-12.430180,
2025-10-24T06:56:34.608940+00:00,0.070000,-4.222560,
2025-10-24T06:56:34.613940+00:00,0.075000,21.311160,
2025-10-24T06:56:34.618940+00:00,0.080000,43.210180,
2025-10-24T06:56:34.623940+00:00,0.085000,43.702280,
2025-10-24T06:56:34.628940+00:00,0.090000,29.133840,
2025-10-24T06:56:34.633940+00:00,0.095000,18.949460,
2025-10-24T06:56:34.638940+00:00,0.100000,19.277020,
2025-10-24T06:56:34.643940+00:00,0.105000,21.037560,
2025-10-24T06:56:34.648940+00:00,0.110000,20.319360,
2025-10-24T06:56:34.653940+00:00,0.115000,19.803700,
2025-10-24T06:56:34.658940+00:00,0.120000,19.661200,
2025-10-24T06:56:34.663940+00:00,0.125000,19.408500,
2025-10-24T06:56:34.668940+00:00,0.130000,19.235600,
2025-10-24T06:56:34.673940+00:00,0.135000,19.055480,
2025-10-24T06:56:34.678940+00:00,0.140000,18.858260,
2025-10-24T06:56:34.683940+00:00,0.145000,18.690300,
2025-10-24T06:56:34.688940+00:00,0.150000,18.539060,
2025-10-24T06:56:34.693940+00:00,0.155000,18.378700,
2025-10-24T06:56:34.698940+00:00,0.160000,18.203140,
2025-10-24T06:56:34.703940+00:00,0.165000,18.014280,
2025-10-24T06:56:34.708940+00:00,0.170000,17.809460,
2025-10-24T06:56:34.713940+00:00,0.175000,17.575760,
2025-10-24T06:56:34.718940+00:00,0.180000,17.324580,
2025-10-24T06:56:34.723940+00:00,0.185000,17.069980,
2025-10-24T06:56:34.728940+00:00,0.190000,16.817280,
2025-10-24T06:56:34.733940+00:00,0.195000,16.560780,
2025-10-24T06:56:34.738940+00:00,0.200000,16.305420,
2025-10-24T06:56:34.743940+00:00,0.205000,16.052340,
2025-10-24T06:56:34.748940+00:00,0.210000,15.800780,
2025-10-24T06:56:34.753940+00:00,0.215000,15.549980,
2025-10-24T06:56:34.758940+00:00,0.220000,15.314380,
2025-10-24T06:56:34.763940+00:00,0.225000,15.089040,
2025-10-24T06:56:34.768940+00:00,0.230000,14.872060,
2025-10-24T06:56:34.773940+00:00,0.235000,14.651660,
2025-10-24T06:56:34.778940+00:00,0.240000,14.428220,
2025-10-24T06:56:34.783940+00:00,0.245000,14.204780,
2025-10-24T06:56:34.788940+00:00,0.250000,13.988180,
2025-10-24T06:56:34.793940+00:00,0.255000,13.783740,
2025-10-24T06:56:34.798940+00:00,0.260000,13.580440,
2025-10-24T06:56:34.803940+00:00,0.265000,13.370300,
2025-10-24T06:56:34.808940+00:00,0.270000,13.159780,
2025-10-24T06:56:34.813940+00:00,0.275000,12.954960,
2025-10-24T06:56:34.818940+00:00,0.280000,12.761160,
2025-10-24T06:56:34.823940+00:00,0.285000,12.577620,
2025-10-24T06:56:34.828940+00:00,0.290000,12.392560,
2025-10-24T06:56:34.833940+00:00,0.295000,12.203700,
2025-10-24T06:56:34.838940+00:00,0.300000,12.019020,
2025-10-24T06:56:34.843940+00:00,0.305000,11.848400,
2025-10-24T06:56:34.848940+00:00,0.310000,11.681580,
2025-10-24T06:56:34.853940+00:00,0.315000,11.510580,
2025-10-24T06:56:34.858940+00:00,0.320000,11.334260,
2025-10-24T06:56:34.863940+00:00,0.325000,11.168960,
2025-10-24T06:56:34.868940+00:00,0.330000,11.003280,
2025-10-24T06:56:34.873940+00:00,0.335000,10.815940,
2025-10-24T06:56:34.878940+00:00,0.340000,10.641900,
2025-10-24T06:56:34.883940+00:00,0.345000,10.530940,
2025-10-24T06:56:34.888940+00:00,0.350000,10.396800,
2025-10-24T06:56:34.893940+00:00,0.355000,10.012620,
2025-10-24T06:56:34.898940+00:00,0.360000,9.205120,
2025-10-24T06:56:34.903940+00:00,0.365000,8.025220,
2025-10-24T06:56:34.908940+00:00,0.370000,6.724860,
2025-10-24T06:56:34.913940+00:00,0.375000,5.573460,
2025-10-24T06:56:34.918940+00:00,0.380000,4.726440,
2025-10-24T06:56:34.923940+00:00,0.385000,4.208120,
2025-10-24T06:56:34.928940+00:00,0.390000,3.940220,
2025-10-24T06:56:34.933940+00:00,0.395000,3.789360,
2025-10-24T06:56:34.938940+00:00,0.400000,3.655980,
2025-10-24T06:56:34.943940+00:00,0.405000,3.529060,
2025-10-24T06:56:34.948940+00:00,0.410000,3.421900,
2025-10-24T06:56:34.953940+00:00,0.415000,3.331080,
2025-10-24T06:56:34.958940+00:00,0.420000,3.256600,
2025-10-24T06:56:34.963940+00:00,0.425000,3.188580,
2025-10-24T06:56:34.968940+00:00,0.430000,3.123980,
2025-10-24T06:56:34.973940+00:00,0.435000,3.062040,
2025-10-24T06:56:34.978940+00:00,0.440000,3.006940,
2025-10-24T06:56:34.983940+00:00,0.445000,2.955260,
2025-10-24T06:56:34.988940+00:00,0.450000,2.902440,
2025-10-24T06:56:34.993940+00:00,0.455000,2.847340,
2025-10-24T06:56:34.998940+00:00,0.460000,2.789960,
2025-10-24T06:56:35.003940+00:00,0.465000,2.734860,
2025-10-24T06:56:35.008940+00:00,0.470000,2.678240,
2025-10-24T06:56:35.013940+00:00,0.475000,2.623520,
2025-10-24T06:56:35.018940+00:00,0.480000,2.575260,
2025-10-24T06:56:35.023940+00:00,0.485000,2.537260,
2025-10-24T06:56:35.028940+00:00,0.490000,2.503060,
2025-10-24T06:56:35.033940+00:00,0.495000,2.462400,
2025-10-24T06:56:35.038940+00:00,0.500000,2.413000,
2025-10-24T06:56:35.043940+00:00,0.505000,2.361700,
2025-10-24T06:56:35.048940+00:00,0.510000,2.312300,
2025-10-24T06:56:35.053940+00:00,0.515000,2.272780,
2025-10-24T06:56:35.058940+00:00,0.520000,2.242760,
2025-10-24T06:56:35.063940+00:00,0.525000,2.213880,
2025-10-24T06:56:35.068940+00:00,0.530000,2.175500,
2025-10-24T06:56:35.073940+00:00,0.535000,2.129140,
2025-10-24T06:56:35.078940+00:00,0.540000,2.082780,
2025-10-24T06:56:35.083940+00:00,0.545000,2.044400,
2025-10-24T06:56:35.088940+00:00,0.550000,2.014000,
2025-10-24T06:56:35.093940+00:00,0.555000,1.987020,
2025-10-24T06:56:35.098940+00:00,0.560000,1.957000,
2025-10-24T06:56:35.103940+00:00,0.565000,1.922800,
2025-10-24T06:56:35.108940+00:00,0.570000,1.883660,
2025-10-24T06:56:35.113940+00:00,0.575000,1.842240,
2025-10-24T06:56:35.118940+00:00,0.580000,1.810320,
2025-10-24T06:56:35.123940+00:00,0.585000,1.789420,
2025-10-24T06:56:35.128940+00:00,0.590000,1.768520,
2025-10-24T06:56:35.133940+00:00,0.595000,1.736600,
2025-10-24T06:56:35.138940+00:00,0.600000,1.703160,
2025-10-24T06:56:35.143940+00:00,0.605000,1.676940,
2025-10-24T06:56:35.148940+00:00,0.610000,1.657560,
2025-10-24T06:56:35.153940+00:00,0.615000,1.635900,
2025-10-24T06:56:35.158940+00:00,0.620000,1.605500,
2025-10-24T06:56:35.163940+00:00,0.625000,1.571680,
2025-10-24T06:56:35.168940+00:00,0.630000,1.542420,
2025-10-24T06:56:35.173940+00:00,0.635000,1.515060,
2025-10-24T06:56:35.178940+00:00,0.640000,1.486180,
2025-10-24T06:56:35.183940+00:00,0.645000,1.460340,
2025-10-24T06:56:35.188940+00:00,0.650000,1.439060,
2025-10-24T06:56:35.193940+00:00,0.655000,1.420820,
2025-10-24T06:56:35.198940+00:00,0.660000,1.398780,
2025-10-24T06:56:35.203940+00:00,0.665000,1.371800,
2025-10-24T06:56:35.208940+00:00,0.670000,1.347480,
2025-10-24T06:56:35.213940+00:00,0.675000,1.326960,
2025-10-24T06:56:35.218940+00:00,0.680000,1.304160,
2025-10-24T06:56:35.223940+00:00,0.685000,1.284780,
2025-10-24T06:56:35.228940+00:00,0.690000,1.268820,
2025-10-24T06:56:35.233940+00:00,0.695000,1.251720,
2025-10-24T06:56:35.238940+00:00,0.700000,1.230060,
2025-10-24T06:56:35.243940+00:00,0.705000,1.211060,
2025-10-24T06:56:35.248940+00:00,0.710000,1.193580,
2025-10-24T06:56:35.253940+00:00,0.715000,1.175720,
2025-10-24T06:56:35.258940+00:00,0.720000,1.154820,
2025-10-24T06:56:35.263940+00:00,0.725000,1.130120,
2025-10-24T06:56:35.268940+00:00,0.730000,1.110360,
2025-10-24T06:56:35.273940+00:00,0.735000,1.099340,
2025-10-24T06:56:35.278940+00:00,0.740000,1.086800,
2025-10-24T06:56:35.283940+00:00,0.745000,1.070460,
2025-10-24T06:56:35.288940+00:00,0.750000,1.053740,
2025-10-24T06:56:35.293940+00:00,0.755000,1.035120,
2025-10-24T06:56:35.298940+00:00,0.760000,1.013080,
2025-10-24T06:56:35.303940+00:00,0.765000,0.991800,
2025-10-24T06:56:35.308940+00:00,0.770000,0.978120,
2025-10-24T06:56:35.313940+00:00,0.775000,0.972040,
2025-10-24T06:56:35.318940+00:00,0.780000,0.965580,
2025-10-24T06:56:35.323940+00:00,0.785000,0.955700,
2025-10-24T06:56:35.328940+00:00,0.790000,0.944680,
2025-10-24T06:56:35.333940+00:00,0.795000,0.929480,
2025-10-24T06:56:35.338940+00:00,0.800000,0.904400,
2025-10-24T06:56:35.343940+00:00,0.805000,0.870200,
2025-10-24T06:56:35.348940+00:00,0.810000,0.839420,
2025-10-24T06:56:35.353940+00:00,0.815000,0.821560,
2025-10-24T06:56:35.358940+00:00,0.820000,0.816620,
2025-10-24T06:56:35.363940+00:00,0.825000,0.809400,
2025-10-24T06:56:35.368940+00:00,0.830000,0.786600,
2025-10-24T06:56:35.373940+00:00,0.835000,0.745560,
2025-10-24T06:56:35.378940+00:00,0.840000,0.699200,
2025-10-24T06:56:35.383940+00:00,0.845000,0.655120,
2025-10-24T06:56:35.388940+00:00,0.850000,0.620160,
2025-10-24T06:56:35.393940+00:00,0.855000,0.584060,
2025-10-24T06:56:35.398940+00:00,0.860000,0.539600,
2025-10-24T06:56:35.403940+00:00,0.865000,0.489060,
2025-10-24T06:56:35.408940+00:00,0.870000,0.444220,
2025-10-24T06:56:35.413940+00:00,0.875000,0.400520,
2025-10-24T06:56:35.418940+00:00,0.880000,0.356820,
2025-10-24T06:56:35.423940+00:00,0.885000,0.314640,
2025-10-24T06:56:35.428940+00:00,0.890000,0.262960,
2025-10-24T06:56:35.433940+00:00,0.895000,0.199500,
2025-10-24T06:56:35.438940+00:00,0.900000,0.174420,
2025-10-24T06:56:35.443940+00:00,0.905000,0.226860,
2025-10-24T06:56:35.448940+00:00,0.910000,0.246240,
2025-10-24T06:56:35.453940+00:00,0.915000,0.113240,
2025-10-24T06:56:35.458940+00:00,0.920000,-0.044080,
2025-10-24T06:56:35.463940+00:00,0.925000,0.036860,
2025-10-24T06:56:35.468940+00:00,0.930000,0.400140,
2025-10-24T06:56:35.473940+00:00,0.935000,0.782800,
2025-10-24T06:56:35.478940+00:00,0.940000,0.903640,
2025-10-24T06:56:35.483940+00:00,0.945000,0.697680,
2025-10-24T06:56:35.488940+00:00,0.950000,0.312360,
2025-10-24T06:56:35.493940+00:00,0.955000,-0.031160,
2025-10-24T06:56:35.498940+00:00,0.960000,-0.177840,
2025-10-24T06:56:35.503940+00:00,0.965000,-0.110580,
2025-10-24T06:56:35.508940+00:00,0.970000,-0.006840,
2025-10-24T06:56:35.513940+00:00,0.975000,-0.156560,
2025-10-24T06:56:35.518940+00:00,0.980000,-0.623580,
2025-10-24T06:56:35.523940+00:00,0.985000,-1.182560,
2025-10-24T06:56:35.528940+00:00,0.990000,-1.685300,
2025-10-24T06:56:35.533940+00:00,0.995000,-2.226800,
2025-10-24T06:56:35.538940+00:00,1.000000,-2.870520,
2025-10-24T06:56:35.543940+00:00,1.005000,-3.570100,
2025-10-24T06:56:35.548940+00:00,1.010000,-4.313760,
2025-10-24T06:56:35.553940+00:00,1.015000,-5.076800,
2025-10-24T06:56:35.558940+00:00,1.020000,-5.783980,
2025-10-24T06:56:35.563940+00:00,1.025000,-6.455820,
2025-10-24T06:56:35.568940+00:00,1.030000,-7.147800,
2025-10-24T06:56:35.573940+00:00,1.035000,-7.823440,
2025-10-24T06:56:35.578940+00:00,1.040000,-8.364560,
2025-10-24T06:56:35.583940+00:00,1.045000,-8.651460,
2025-10-24T06:56:35.588940+00:00,1.050000,-8.675020,
2025-10-24T06:56:35.593940+00:00,1.055000,-8.599020,
2025-10-24T06:56:35.598940+00:00,1.060000,-8.570900,
2025-10-24T06:56:35.603940+00:00,1.065000,-8.549620,
2025-10-24T06:56:35.608940+00:00,1.070000,-8.484640,
2025-10-24T06:56:35.613940+00:00,1.075000,-8.463360,
2025-10-24T06:56:35.618940+00:00,1.080000,-8.513900,
2025-10-24T06:56:35.623940+00:00,1.085000,-8.534800,
2025-10-24T06:56:35.628940+00:00,1.090000,-8.471720,
2025-10-24T06:56:35.633940+00:00,1.095000,-8.357720,
2025-10-24T06:56:35.638940+00:00,1.100000,-8.219020,
2025-10-24T06:56:35.643940+00:00,1.105000,-8.074240,
2025-10-24T06:56:35.648940+00:00,1.110000,-7.952260,
2025-10-24T06:56:35.653940+00:00,1.115000,-7.832940,
2025-10-24T06:56:35.658940+00:00,1.120000,-7.717420,
2025-10-24T06:56:35.663940+00:00,1.125000,-7.645980,
2025-10-24T06:56:35.668940+00:00,1.130000,-7.583660,
2025-10-24T06:56:35.673940+00:00,1.135000,-7.481060,
2025-10-24T06:56:35.678940+00:00,1.140000,-7.384160,
2025-10-24T06:56:35.683940+00:00,1.145000,-7.307400,
2025-10-24T06:56:35.688940+00:00,1.150000,-7.220000,
2025-10-24T06:56:35.693940+00:00,1.155000,-7.140960,
2025-10-24T06:56:35.698940+00:00,1.160000,-7.079780,
2025-10-24T06:56:35.703940+00:00,1.165000,-6.987440,
2025-10-24T06:56:35.708940+00:00,1.170000,-6.869260,
2025-10-24T06:56:35.713940+00:00,1.175000,-6.783380,
2025-10-24T06:56:35.718940+00:00,1.180000,-6.718020,
2025-10-24T06:56:35.723940+00:00,1.185000,-6.629480,
2025-10-24T06:56:35.728940+00:00,1.190000,-6.528780,
2025-10-24T06:56:35.733940+00:00,1.195000,-6.431500,
2025-10-24T06:56:35.738940+00:00,1.200000,-6.322060,
2025-10-24T06:56:35.743940+00:00,1.205000,-6.137000,
2025-10-24T06:56:35.748940+00:00,1.210000,-5.806400,
2025-10-24T06:56:35.753940+00:00,1.215000,-5.446540,
2025-10-24T06:56:35.758940+00:00,1.220000,-5.358000,
2025-10-24T06:56:35.763940+00:00,1.225000,-5.620580,
2025-10-24T06:56:35.768940+00:00,1.230000,-5.949280,
2025-10-24T06:56:35.773940+00:00,1.235000,-6.054540,
2025-10-24T06:56:35.778940+00:00,1.240000,-5.922680,
2025-10-24T06:56:35.783940+00:00,1.245000,-5.696200,
2025-10-24T06:56:35.788940+00:00,1.250000,-5.489860,
2025-10-24T06:56:35.793940+00:00,1.255000,-5.340140,
2025-10-24T06:56:35.798940+00:00,1.260000,-5.231080,
2025-10-24T06:56:35.803940+00:00,1.265000,-5.139880,
2025-10-24T06:56:35.808940+00:00,1.270000,-5.056280,
2025-10-24T06:56:35.813940+00:00,1.275000,-4.983320,
2025-10-24T06:56:35.818940+00:00,1.280000,-4.945700,
2025-10-24T06:56:35.823940+00:00,1.285000,-4.941140,
2025-10-24T06:56:35.828940+00:00,1.290000,-4.931640,
2025-10-24T06:56:35.833940+00:00,1.295000,-4.892500,
2025-10-24T06:56:35.838940+00:00,1.300000,-4.810040,
2025-10-24T06:56:35.843940+00:00,1.305000,-4.680460,
2025-10-24T06:56:35.848940+00:00,1.310000,-4.523140,
2025-10-24T06:56:35.853940+00:00,1.315000,-4.353280,
2025-10-24T06:56:35.858940+00:00,1.320000,-4.176960,
2025-10-24T06:56:35.863940+00:00,1.325000,-4.024580,
2025-10-24T06:56:35.868940+00:00,1.330000,-3.919320,
2025-10-24T06:56:35.873940+00:00,1.335000,-3.830400,
2025-10-24T06:56:35.878940+00:00,1.340000,-3.730080,
2025-10-24T06:56:35.883940+00:00,1.345000,-3.632800,
2025-10-24T06:56:35.888940+00:00,1.350000,-3.557560,
2025-10-24T06:56:35.893940+00:00,1.355000,-3.520700,
2025-10-24T06:56:35.898940+00:00,1.360000,-3.510060,
2025-10-24T06:56:35.903940+00:00,1.365000,-3.490300,
2025-10-24T06:56:35.908940+00:00,1.370000,-3.436720,
2025-10-24T06:56:35.913940+00:00,1.375000,-3.365280,
2025-10-24T06:56:35.918940+00:00,1.380000,-3.299920,
2025-10-24T06:56:35.923940+00:00,1.385000,-3.256220,
2025-10-24T06:56:35.928940+00:00,1.390000,-3.252800,
2025-10-24T06:56:35.933940+00:00,1.395000,-3.277120,
2025-10-24T06:56:35.938940+00:00,1.400000,-3.287000,
2025-10-24T06:56:35.943940+00:00,1.405000,-3.288900,
2025-10-24T06:56:35.948940+00:00,1.410000,-3.306380,
2025-10-24T06:56:35.953940+00:00,1.415000,-3.331840,
2025-10-24T06:56:35.958940+00:00,1.420000,-3.334880,
2025-10-24T06:56:35.963940+00:00,1.425000,-3.308280,
2025-10-24T06:56:35.968940+00:00,1.430000,-3.256600,
2025-10-24T06:56:35.973940+00:00,1.435000,-3.202260,
2025-10-24T06:56:35.978940+00:00,1.440000,-3.166540,
2025-10-24T06:56:35.983940+00:00,1.445000,-3.127020,
2025-10-24T06:56:35.988940+00:00,1.450000,-3.073820,
2025-10-24T06:56:35.993940+00:00,1.455000,-3.052540,
2025-10-24T06:56:35.998940+00:00,1.460000,-2.980720,
2025-10-24T06:56:36.003940+00:00,1.465000,-2.803640,
2025-10-24T06:56:36.008940+00:00,1.470000,-2.808960,
2025-10-24T06:56:36.013940+00:00,1.475000,-3.011500,
2025-10-24T06:56:36.018940+00:00,1.480000,-2.773240,
2025-10-24T06:56:36.023940+00:00,1.485000,-1.729000,
2025-10-24T06:56:36.028940+00:00,1.490000,-0.573040,
2025-10-24T06:56:36.033940+00:00,1.495000,-0.416100,
2025-10-24T06:56:36.038940+00:00,1.500000,-1.451600,
2025-10-24T06:56:36.043940+00:00,1.505000,-2.686220,
2025-10-24T06:56:36.048940+00:00,1.510000,-3.113720,
2025-10-24T06:56:36.053940+00:00,1.515000,-2.808200,
2025-10-24T06:56:36.058940+00:00,1.520000,-2.479500,
2025-10-24T06:56:36.063940+00:00,1.525000,-2.401220,
2025-10-24T06:56:36.068940+00:00,1.530000,-2.427440,
2025-10-24T06:56:36.073940+00:00,1.535000,-2.424400,
2025-10-24T06:56:36.078940+00:00,1.540000,-2.369300,
2025-10-24T06:56:36.083940+00:00,1.545000,-2.329400,
2025-10-24T06:56:36.088940+00:00,1.550000,-2.297480,
2025-10-24T06:56:36.093940+00:00,1.555000,-2.183480,
2025-10-24T06:56:36.098940+00:00,1.560000,-2.012480,
2025-10-24T06:56:36.103940+00:00,1.565000,-1.882900,
2025-10-24T06:56:36.108940+00:00,1.570000,-1.818680,
2025-10-24T06:56:36.113940+00:00,1.575000,-1.782580,
2025-10-24T06:56:36.118940+00:00,1.580000,-1.800440,
2025-10-24T06:56:36.123940+00:00,1.585000,-1.918620,
2025-10-24T06:56:36.128940+00:00,1.590000,-2.082780,
2025-10-24T06:56:36.133940+00:00,1.595000,-2.106720,
2025-10-24T06:56:36.138940+00:00,1.600000,-1.876820,
2025-10-24T06:56:36.143940+00:00,1.605000,-1.650720,
2025-10-24T06:56:36.148940+00:00,1.610000,-1.864660,
2025-10-24T06:56:36.153940+00:00,1.615000,-2.556640,
2025-10-24T06:56:36.158940+00:00,1.620000,-3.326140,
2025-10-24T06:56:36.163940+00:00,1.625000,-3.859280,
2025-10-24T06:56:36.168940+00:00,1.630000,-4.167080,
2025-10-24T06:56:36.173940+00:00,1.635000,-4.333520,
2025-10-24T06:56:36.178940+00:00,1.640000,-4.390140,
2025-10-24T06:56:36.183940+00:00,1.645000,-4.377220,
2025-10-24T06:56:36.188940+00:00,1.650000,-4.327060,
2025-10-24T06:56:36.193940+00:00,1.655000,-4.311860,
2025-10-24T06:56:36.198940+00:00,1.660000,-4.456640,
2025-10-24T06:56:36.203940+00:00,1.665000,-4.759500,
2025-10-24T06:56:36.208940+00:00,1.670000,-5.131140,
2025-10-24T06:56:36.213940+00:00,1.675000,-5.508100,
2025-10-24T06:56:36.218940+00:00,1.680000,-5.782840,
2025-10-24T06:56:36.223940+00:00,1.685000,-5.855420,
2025-10-24T06:56:36.228940+00:00,1.690000,-5.775240,
2025-10-24T06:56:36.233940+00:00,1.695000,-5.627040,
2025-10-24T06:56:36.238940+00:00,1.700000,-5.407780,
2025-10-24T06:56:36.243940+00:00,1.705000,-5.131900,
2025-10-24T06:56:36.248940+00:00,1.710000,-4.785720,
2025-10-24T06:56:36.253940+00:00,1.715000,-4.288680,
2025-10-24T06:56:36.258940+00:00,1.720000,-3.676120,
2025-10-24T06:56:36.263940+00:00,1.725000,-3.112200,
2025-10-24T06:56:36.268940+00:00,1.730000,-2.648600,
2025-10-24T06:56:36.273940+00:00,1.735000,-2.253780,
2025-10-24T06:56:36.278940+00:00,1.740000,-1.970300,
2025-10-24T06:56:36.283940+00:00,1.745000,-1.809180,
2025-10-24T06:56:36.288940+00:00,1.750000,-1.702400,
2025-10-24T06:56:36.293940+00:00,1.755000,-1.616140,
2025-10-24T06:56:36.298940+00:00,1.760000,-1.527600,
2025-10-24T06:56:36.303940+00:00,1.765000,-1.369900,
2025-10-24T06:56:36.308940+00:00,1.770000,-1.116060,
2025-10-24T06:56:36.313940+00:00,1.775000,-0.824980,
2025-10-24T06:56:36.318940+00:00,1.780000,-0.537700,
2025-10-24T06:56:36.323940+00:00,1.785000,-0.237500,
2025-10-24T06:56:36.328940+00:00,1.790000,0.081320,
2025-10-24T06:56:36.333940+00:00,1.795000,0.357200,
2025-10-24T06:56:36.338940+00:00,1.800000,0.457900,
2025-10-24T06:56:36.343940+00:00,1.805000,0.294880,
2025-10-24T06:56:36.348940+00:00,1.810000,-0.030400,
2025-10-24T06:56:36.353940+00:00,1.815000,-0.304760,
2025-10-24T06:56:36.358940+00:00,1.820000,-0.462080,
2025-10-24T06:56:36.363940+00:00,1.825000,-0.554800,
2025-10-24T06:56:36.368940+00:00,1.830000,-0.562020,
2025-10-24T06:56:36.373940+00:00,1.835000,-0.457900,
2025-10-24T06:56:36.378940+00:00,1.840000,-0.284240,
2025-10-24T06:56:36.383940+00:00,1.845000,-0.026600,
2025-10-24T06:56:36.388940+00:00,1.850000,0.288040,
2025-10-24T06:56:36.393940+00:00,1.855000,0.477660,
2025-10-24T06:56:36.398940+00:00,1.860000,0.481840,
2025-10-24T06:56:36.403940+00:00,1.865000,0.516800,
2025-10-24T06:56:36.408940+00:00,1.870000,0.813200,
2025-10-24T06:56:36.413940+00:00,1.875000,1.230060,
2025-10-24T06:56:36.418940+00:00,1.880000,1.314420,
2025-10-24T06:56:36.423940+00:00,1.885000,0.874760,
2025-10-24T06:56:36.428940+00:00,1.890000,0.353400,
2025-10-24T06:56:36.433940+00:00,1.895000,0.279680,
2025-10-24T06:56:36.438940+00:00,1.900000,0.506540,
2025-10-24T06:56:36.443940+00:00,1.905000,0.457140,
2025-10-24T06:56:36.448940+00:00,1.910000,0.086640,
2025-10-24T06:56:36.453940+00:00,1.915000,-0.057380,
2025-10-24T06:56:36.458940+00:00,1.920000,0.037240,
2025-10-24T06:56:36.463940+00:00,1.925000,-0.593560,
2025-10-24T06:56:36.468940+00:00,1.930000,-2.585900,
2025-10-24T06:56:36.473940+00:00,1.935000,-5.021700,
2025-10-24T06:56:36.478940+00:00,1.940000,-6.209580,
2025-10-24T06:56:36.483940+00:00,1.945000,-5.513040,
2025-10-24T06:56:36.488940+00:00,1.950000,-3.893860,
2025-10-24T06:56:36.493940+00:00,1.955000,-2.709400,
2025-10-24T06:56:36.498940+00:00,1.960000,-2.380320,
2025-10-24T06:56:36.503940+00:00,1.965000,-2.368540,
2025-10-24T06:56:36.508940+00:00,1.970000,-2.134460,
2025-10-24T06:56:36.513940+00:00,1.975000,-1.583460,
2025-10-24T06:56:36.518940+00:00,1.980000,-0.854620,
2025-10-24T06:56:36.523940+00:00,1.985000,-0.263720,
2025-10-24T06:56:36.528940+00:00,1.990000,-0.201400,
2025-10-24T06:56:36.533940+00:00,1.995000,-0.794960,
2025-10-24T06:56:36.538940+00:00,2.000000,-1.831600,
2025-10-24T06:56:36.543940+00:00,2.005000,-2.783120,
2025-10-24T06:56:36.548940+00:00,2.010000,-2.712060,
2025-10-24T06:56:36.553940+00:00,2.015000,-1.496060,
2025-10-24T06:56:36.558940+00:00,2.020000,-1.218280,
2025-10-24T06:56:36.563940+00:00,2.025000,-3.914760,
2025-10-24T06:56:36.568940+00:00,2.030000,-8.599020,
2025-10-24T06:56:36.573940+00:00,2.035000,-13.151040,
2025-10-24T06:56:36.578940+00:00,2.040000,-17.840240,
2025-10-24T06:56:36.583940+00:00,2.045000,-24.591320,
2025-10-24T06:56:36.588940+00:00,2.050000,-33.135620,
2025-10-24T06:56:36.593940+00:00,2.055000,-39.996900,
2025-10-24T06:56:36.598940+00:00,2.060000,-42.397740,
2025-10-24T06:56:36.603940+00:00,2.065000,-41.595940,
2025-10-24T06:56:36.608940+00:00,2.070000,-40.735240,
2025-10-24T06:56:36.613940+00:00,2.075000,-40.468860,
2025-10-24T06:56:36.618940+00:00,2.080000,-39.147220,
2025-10-24T06:56:36.623940+00:00,2.085000,-36.992620,
2025-10-24T06:56:36.628940+00:00,2.090000,-36.377020,
2025-10-24T06:56:36.633940+00:00,2.095000,-36.991100,
2025-10-24T06:56:36.638940+00:00,2.100000,-32.317860,
2025-10-24T06:56:36.643940+00:00,2.105000,-15.463720,
2025-10-24T06:56:36.648940+00:00,2.110000,8.633600,
2025-10-24T06:56:36.653940+00:00,2.115000,24.688600,
2025-10-24T06:56:36.658940+00:00,2.120000,24.588280,
2025-10-24T06:56:36.663940+00:00,2.125000,16.499600,
2025-10-24T06:56:36.668940+00:00,2.130000,13.246040,
2025-10-24T06:56:36.673940+00:00,2.135000,16.903160,
2025-10-24T06:56:36.678940+00:00,2.140000,20.404480,
2025-10-24T06:56:36.683940+00:00,2.145000,19.678680,
2025-10-24T06:56:36.688940+00:00,2.150000,17.476200,
2025-10-24T06:56:36.693940+00:00,2.155000,16.845020,
2025-10-24T06:56:36.698940+00:00,2.160000,16.847680,
2025-10-24T06:56:36.703940+00:00,2.165000,16.309600,
2025-10-24T06:56:36.708940+00:00,2.170000,15.904900,
2025-10-24T06:56:36.713940+00:00,2.175000,15.981280,
2025-10-24T06:56:36.718940+00:00,2.180000,16.017000,
2025-10-24T06:56:36.723940+00:00,2.185000,15.073840,
2025-10-24T06:56:36.728940+00:00,2.190000,12.662740,
2025-10-24T06:56:36.733940+00:00,2.195000,9.765240,
2025-10-24T06:56:36.738940+00:00,2.200000,7.681700,
2025-10-24T06:56:36.743940+00:00,2.205000,6.301540,
2025-10-24T06:56:36.748940+00:00,2.210000,4.476400,
2025-10-24T06:56:36.753940+00:00,2.215000,1.735080,
2025-10-24T06:56:36.758940+00:00,2.220000,-0.833340,
2025-10-24T06:56:36.763940+00:00,2.225000,-1.708860,
2025-10-24T06:56:36.768940+00:00,2.230000,-0.934040,
2025-10-24T06:56:36.773940+00:00,2.235000,-0.079420,
2025-10-24T06:56:36.778940+00:00,2.240000,0.046740,
2025-10-24T06:56:36.783940+00:00,2.245000,0.180880,
2025-10-24T06:56:36.788940+00:00,2.250000,1.070840,
2025-10-24T06:56:36.793940+00:00,2.255000,2.770580,
2025-10-24T06:56:36.798940+00:00,2.260000,4.720360,
2025-10-24T06:56:36.803940+00:00,2.265000,5.986140,
2025-10-24T06:56:36.808940+00:00,2.270000,6.150680,
2025-10-24T06:56:36.813940+00:00,2.275000,5.658200,
2025-10-24T06:56:36.818940+00:00,2.280000,5.268320,
2025-10-24T06:56:36.823940+00:00,2.285000,5.474660,
2025-10-24T06:56:36.828940+00:00,2.290000,6.137760,
2025-10-24T06:56:36.833940+00:00,2.295000,6.615420,
2025-10-24T06:56:36.838940+00:00,2.300000,6.612000,
2025-10-24T06:56:36.843940+00:00,2.305000,6.480900,
2025-10-24T06:56:36.848940+00:00,2.310000,6.436440,
2025-10-24T06:56:36.853940+00:00,2.315000,6.320920,
2025-10-24T06:56:36.858940+00:00,2.320000,6.075440,
2025-10-24T06:56:36.863940+00:00,2.325000,5.760420,
2025-10-24T06:56:36.868940+00:00,2.330000,5.354960,
2025-10-24T06:56:36.873940+00:00,2.335000,4.855640,
2025-10-24T06:56:36.878940+00:00,2.340000,4.324400,
2025-10-24T06:56:36.883940+00:00,2.345000,3.825460,
2025-10-24T06:56:36.888940+00:00,2.350000,3.407840,
2025-10-24T06:56:36.893940+00:00,2.355000,3.114480,
2025-10-24T06:56:36.898940+00:00,2.360000,2.932460,
2025-10-24T06:56:36.903940+00:00,2.365000,2.787680,
2025-10-24T06:56:36.908940+00:00,2.370000,2.625800,
2025-10-24T06:56:36.913940+00:00,2.375000,2.443020,
2025-10-24T06:56:36.918940+00:00,2.380000,2.241620,
2025-10-24T06:56:36.923940+00:00,2.385000,2.048960,
2025-10-24T06:56:36.928940+00:00,2.390000,1.888220,
2025-10-24T06:56:36.933940+00:00,2.395000,1.736220,
2025-10-24T06:56:36.938940+00:00,2.400000,1.565600,
2025-10-24T06:56:36.943940+00:00,2.405000,1.390420,
2025-10-24T06:56:36.948940+00:00,2.410000,1.285920,
2025-10-24T06:56:36.953940+00:00,2.415000,1.300360,
2025-10-24T06:56:36.958940+00:00,2.420000,1.407900,
2025-10-24T06:56:36.963940+00:00,2.425000,1.527220,
2025-10-24T06:56:36.968940+00:00,2.430000,1.445520,
2025-10-24T06:56:36.973940+00:00,2.435000,0.914660,
2025-10-24T06:56:36.978940+00:00,2.440000,0.015580,
2025-10-24T06:56:36.983940+00:00,2.445000,-0.890340,
2025-10-24T06:56:36.988940+00:00,2.450000,-1.622220,
2025-10-24T06:56:36.993940+00:00,2.455000,-2.202860,
2025-10-24T06:56:36.998940+00:00,2.460000,-2.544100,
2025-10-24T06:56:37.003940+00:00,2.465000,-2.469240,
2025-10-24T06:56:37.008940+00:00,2.470000,-2.032240,
2025-10-24T06:56:37.013940+00:00,2.475000,-1.440580,
2025-10-24T06:56:37.018940+00:00,2.480000,-0.702240,
2025-10-24T06:56:37.023940+00:00,2.485000,0.130720,
2025-10-24T06:56:37.028940+00:00,2.490000,0.621300,
2025-10-24T06:56:37.033940+00:00,2.495000,0.481080,
2025-10-24T06:56:37.038940+00:00,2.500000,0.228760,
2025-10-24T06:56:37.043940+00:00,2.505000,0.652080,
2025-10-24T06:56:37.048940+00:00,2.510000,1.637040,
2025-10-24T06:56:37.053940+00:00,2.515000,2.286460,
2025-10-24T06:56:37.058940+00:00,2.520000,2.170940,
2025-10-24T06:56:37.063940+00:00,2.525000,1.789040,
2025-10-24T06:56:37.068940+00:00,2.530000,1.678840,
2025-10-24T06:56:37.073940+00:00,2.535000,1.692900,
2025-10-24T06:56:37.078940+00:00,2.540000,1.587260,
2025-10-24T06:56:37.083940+00:00,2.545000,1.393840,
2025-10-24T06:56:37.088940+00:00,2.550000,1.002440,
2025-10-24T06:56:37.093940+00:00,2.555000,0.383420,
2025-10-24T06:56:37.098940+00:00,2.560000,-0.041040,
2025-10-24T06:56:37.103940+00:00,2.565000,0.047500,
2025-10-24T06:56:37.108940+00:00,2.570000,0.417240,
2025-10-24T06:56:37.113940+00:00,2.575000,0.706420,
2025-10-24T06:56:37.118940+00:00,2.580000,0.793820,
2025-10-24T06:56:37.123940+00:00,2.585000,0.698820,
2025-10-24T06:56:37.128940+00:00,2.590000,0.565060,
2025-10-24T06:56:37.133940+00:00,2.595000,0.515280,
2025-10-24T06:56:37.138940+00:00,2.600000,0.495900,
2025-10-24T06:56:37.143940+00:00,2.605000,0.453340,
2025-10-24T06:56:37.148940+00:00,2.610000,0.403940,
2025-10-24T06:56:37.153940+00:00,2.615000,0.294500,
2025-10-24T06:56:37.158940+00:00,2.620000,0.160740,
2025-10-24T06:56:37.163940+00:00,2.625000,0.150480,
2025-10-24T06:56:37.168940+00:00,2.630000,0.307800,
2025-10-24T06:56:37.173940+00:00,2.635000,0.599260,
2025-10-24T06:56:37.178940+00:00,2.640000,0.965580,
2025-10-24T06:56:37.183940+00:00,2.645000,1.206500,
2025-10-24T06:56:37.188940+00:00,2.650000,1.211060,
2025-10-24T06:56:37.193940+00:00,2.655000,1.174580,
2025-10-24T06:56:37.198940+00:00,2.660000,1.257040,
2025-10-24T06:56:37.203940+00:00,2.665000,1.295420,
2025-10-24T06:56:37.208940+00:00,2.670000,1.166600,
2025-10-24T06:56:37.213940+00:00,2.675000,1.048040,
2025-10-24T06:56:37.218940+00:00,2.680000,1.069320,
2025-10-24T06:56:37.223940+00:00,2.685000,1.053740,
2025-10-24T06:56:37.228940+00:00,2.690000,0.615220,
2025-10-24T06:56:37.233940+00:00,2.695000,-0.431680,
2025-10-24T06:56:37.238940+00:00,2.700000,-1.491880,
2025-10-24T06:56:37.243940+00:00,2.705000,-1.578900,
2025-10-24T06:56:37.248940+00:00,2.710000,-0.518700,
2025-10-24T06:56:37.253940+00:00,2.715000,0.783940,
2025-10-24T06:56:37.258940+00:00,2.720000,1.417020,
2025-10-24T06:56:37.263940+00:00,2.725000,1.347100,
2025-10-24T06:56:37.268940+00:00,2.730000,1.097060,
2025-10-24T06:56:37.273940+00:00,2.735000,1.046520,
2025-10-24T06:56:37.278940+00:00,2.740000,1.143800,
2025-10-24T06:56:37.283940+00:00,2.745000,1.177620,
2025-10-24T06:56:37.288940+00:00,2.750000,1.158620,
2025-10-24T06:56:37.293940+00:00,2.755000,1.190160,
2025-10-24T06:56:37.298940+00:00,2.760000,1.300740,
2025-10-24T06:56:37.303940+00:00,2.765000,1.484660,
2025-10-24T06:56:37.308940+00:00,2.770000,1.668200,
2025-10-24T06:56:37.313940+00:00,2.775000,1.706580,
2025-10-24T06:56:37.318940+00:00,2.780000,1.540900,
2025-10-24T06:56:37.323940+00:00,2.785000,1.271480,
2025-10-24T06:56:37.328940+00:00,2.790000,1.043860,
2025-10-24T06:56:37.333940+00:00,2.795000,0.905540,
2025-10-24T06:56:37.338940+00:00,2.800000,0.843980,
2025-10-24T06:56:37.343940+00:00,2.805000,0.881220,
2025-10-24T06:56:37.348940+00:00,2.810000,1.004720,
2025-10-24T06:56:37.353940+00:00,2.815000,1.098960,
2025-10-24T06:56:37.358940+00:00,2.820000,1.043100,
2025-10-24T06:56:37.363940+00:00,2.825000,0.857280,
2025-10-24T06:56:37.368940+00:00,2.830000,0.689700,
2025-10-24T06:56:37.373940+00:00,2.835000,0.639160,
2025-10-24T06:56:37.378940+00:00,2.840000,0.662720,
2025-10-24T06:56:37.383940+00:00,2.845000,0.676020,
2025-10-24T06:56:37.388940+00:00,2.850000,0.655500,
2025-10-24T06:56:37.393940+00:00,2.855000,0.593560,
2025-10-24T06:56:37.398940+00:00,2.860000,0.519080,
2025-10-24T06:56:37.403940+00:00,2.865000,0.529720,
2025-10-24T06:56:37.408940+00:00,2.870000,0.668040,
2025-10-24T06:56:37.413940+00:00,2.875000,0.842460,
2025-10-24T06:56:37.418940+00:00,2.880000,0.938980,
2025-10-24T06:56:37.423940+00:00,2.885000,0.926820,
2025-10-24T06:56:37.428940+00:00,2.890000,0.839040,
2025-10-24T06:56:37.433940+00:00,2.895000,0.715540,
2025-10-24T06:56:37.438940+00:00,2.900000,0.588240,
2025-10-24T06:56:37.443940+00:00,2.905000,0.505400,
2025-10-24T06:56:37.448940+00:00,2.910000,0.498560,
2025-10-24T06:56:37.453940+00:00,2.915000,0.559740,
2025-10-24T06:56:37.458940+00:00,2.920000,0.650560,
2025-10-24T06:56:37.463940+00:00,2.925000,0.714020,
2025-10-24T06:56:37.468940+00:00,2.930000,0.709080,
2025-10-24T06:56:37.473940+00:00,2.935000,0.642960,
2025-10-24T06:56:37.478940+00:00,2.940000,0.558600,
2025-10-24T06:56:37.483940+00:00,2.945000,0.496280,
2025-10-24T06:56:37.488940+00:00,2.950000,0.486780,
2025-10-24T06:56:37.493940+00:00,2.955000,0.521740,
2025-10-24T06:56:37.498940+00:00,2.960000,0.546820,
2025-10-24T06:56:37.503940+00:00,2.965000,0.542640,
2025-10-24T06:56:37.508940+00:00,2.970000,0.503120,
2025-10-24T06:56:37.513940+00:00,2.975000,0.410020,
2025-10-24T06:56:37.518940+00:00,2.980000,0.302480,
2025-10-24T06:56:37.523940+00:00,2.985000,0.265240,
2025-10-24T06:56:37.528940+00:00,2.990000,0.298680,
2025-10-24T06:56:37.533940+00:00,2.995000,0.334780,
2025-10-24T06:56:37.538940+00:00,3.000000,0.344660,
2025-10-24T06:56:37.543940+00:00,3.005000,0.345800,
2025-10-24T06:56:37.548940+00:00,3.010000,0.353780,
2025-10-24T06:56:37.553940+00:00,3.015000,0.379240,
2025-10-24T06:56:37.558940+00:00,3.020000,0.399760,
2025-10-24T06:56:37.563940+00:00,3.025000,0.375440,
2025-10-24T06:56:37.568940+00:00,3.030000,0.321480,
2025-10-24T06:56:37.573940+00:00,3.035000,0.298300,
2025-10-24T06:56:37.578940+00:00,3.040000,0.315020,
2025-10-24T06:56:37.583940+00:00,3.045000,0.341240,
2025-10-24T06:56:37.588940+00:00,3.050000,0.360620,
2025-10-24T06:56:37.593940+00:00,3.055000,0.351880,
2025-10-24T06:56:37.598940+00:00,3.060000,0.299820,
2025-10-24T06:56:37.603940+00:00,3.065000,0.241300,
2025-10-24T06:56:37.608940+00:00,3.070000,0.204820,
2025-10-24T06:56:37.613940+00:00,3.075000,0.180880,
2025-10-24T06:56:37.618940+00:00,3.080000,0.178220,
2025-10-24T06:56:37.623940+00:00,3.085000,0.214320,
2025-10-24T06:56:37.628940+00:00,3.090000,0.250800,
2025-10-24T06:56:37.633940+00:00,3.095000,0.263720,
2025-10-24T06:56:37.638940+00:00,3.100000,0.286520,
2025-10-24T06:56:37.643940+00:00,3.105000,0.319200,
2025-10-24T06:56:37.648940+00:00,3.110000,0.327560,
2025-10-24T06:56:37.653940+00:00,3.115000,0.319580,
2025-10-24T06:56:37.658940+00:00,3.120000,0.327560,
2025-10-24T06:56:37.663940+00:00,3.125000,0.342380,
2025-10-24T06:56:37.668940+00:00,3.130000,0.347320,
2025-10-24T06:56:37.673940+00:00,3.135000,0.331360,
2025-10-24T06:56:37.678940+00:00,3.140000,0.278160,
2025-10-24T06:56:37.683940+00:00,3.145000,0.219640,
2025-10-24T06:56:37.688940+00:00,3.150000,0.192280,
2025-10-24T06:56:37.693940+00:00,3.155000,0.179740,
2025-10-24T06:56:37.698940+00:00,3.160000,0.162640,
2025-10-24T06:56:37.703940+00:00,3.165000,0.158080,
2025-10-24T06:56:37.708940+00:00,3.170000,0.159980,
2025-10-24T06:56:37.713940+00:00,3.175000,0.140980,
2025-10-24T06:56:37.718940+00:00,3.180000,0.120840,
2025-10-24T06:56:37.723940+00:00,3.185000,0.133760,
2025-10-24T06:56:37.728940+00:00,3.190000,0.150100,
2025-10-24T06:56:37.733940+00:00,3.195000,0.148200,
2025-10-24T06:56:37.738940+00:00,3.200000,0.163400,
2025-10-24T06:56:37.743940+00:00,3.205000,0.225340,
2025-10-24T06:56:37.748940+00:00,3.210000,0.294120,
2025-10-24T06:56:37.753940+00:00,3.215000,0.330980,
2025-10-24T06:56:37.758940+00:00,3.220000,0.330600,
2025-10-24T06:56:37.763940+00:00,3.225000,0.301720,
2025-10-24T06:56:37.768940+00:00,3.230000,0.267900,
2025-10-24T06:56:37.773940+00:00,3.235000,0.273220,
2025-10-24T06:56:37.778940+00:00,3.240000,0.284620,
2025-10-24T06:56:37.783940+00:00,3.245000,0.252320,
2025-10-24T06:56:37.788940+00:00,3.250000,0.205960,
2025-10-24T06:56:37.793940+00:00,3.255000,0.199500,
2025-10-24T06:56:37.798940+00:00,3.260000,0.235980,
2025-10-24T06:56:37.803940+00:00,3.265000,0.302480,
2025-10-24T06:56:37.808940+00:00,3.270000,0.367460,
2025-10-24T06:56:37.813940+00:00,3.275000,0.378100,
2025-10-24T06:56:37.818940+00:00,3.280000,0.332500,
2025-10-24T06:56:37.823940+00:00,3.285000,0.285380,
2025-10-24T06:56:37.828940+00:00,3.290000,0.254220,
2025-10-24T06:56:37.833940+00:00,3.295000,0.226860,
2025-10-24T06:56:37.838940+00:00,3.300000,0.207860,
2025-10-24T06:56:37.843940+00:00,3.305000,0.183920,
2025-10-24T06:56:37.848940+00:00,3.310000,0.122740,
2025-10-24T06:56:37.853940+00:00,3.315000,0.068020,
2025-10-24T06:56:37.858940+00:00,3.320000,0.068020,
2025-10-24T06:56:37.863940+00:00,3.325000,0.092720,
2025-10-24T06:56:37.868940+00:00,3.330000,0.108300,
2025-10-24T06:56:37.873940+00:00,3.335000,0.118180,
2025-10-24T06:56:37.878940+00:00,3.340000,0.102980,
2025-10-24T06:56:37.883940+00:00,3.345000,0.062700,
2025-10-24T06:56:37.888940+00:00,3.350000,0.055860,
2025-10-24T06:56:37.893940+00:00,3.355000,0.087020,
2025-10-24T06:56:37.898940+00:00,3.360000,0.106400,
2025-10-24T06:56:37.903940+00:00,3.365000,0.117800,
2025-10-24T06:56:37.908940+00:00,3.370000,0.135660,
2025-10-24T06:56:37.913940+00:00,3.375000,0.126160,
2025-10-24T06:56:37.918940+00:00,3.380000,0.091200,
2025-10-24T06:56:37.923940+00:00,3.385000,0.069160,
2025-10-24T06:56:37.928940+00:00,3.390000,0.037240,
2025-10-24T06:56:37.933940+00:00,3.395000,-0.020520,
2025-10-24T06:56:37.938940+00:00,3.400000,-0.054720,
2025-10-24T06:56:37.943940+00:00,3.405000,-0.046360,
2025-10-24T06:56:37.948940+00:00,3.410000,-0.034200,
2025-10-24T06:56:37.953940+00:00,3.415000,-0.019760,
2025-10-24T06:56:37.958940+00:00,3.420000,0.006080,
2025-10-24T06:56:37.963940+00:00,3.425000,0.018620,
2025-10-24T06:56:37.968940+00:00,3.430000,0.019760,
2025-10-24T06:56:37.973940+00:00,3.435000,0.039140,
2025-10-24T06:56:37.978940+00:00,3.440000,0.053580,
2025-10-24T06:56:37.983940+00:00,3.445000,0.046740,
2025-10-24T06:56:37.988940+00:00,3.450000,0.061940,
2025-10-24T06:56:37.993940+00:00,3.455000,0.095760,
2025-10-24T06:56:37.998940+00:00,3.460000,0.101840,
2025-10-24T06:56:38.003940+00:00,3.465000,0.096140,
2025-10-24T06:56:38.008940+00:00,3.470000,0.102980,
2025-10-24T06:56:38.013940+00:00,3.475000,0.099180,
2025-10-24T06:56:38.018940+00:00,3.480000,0.085880,
2025-10-24T06:56:38.023940+00:00,3.485000,0.072580,
2025-10-24T06:56:38.028940+00:00,3.490000,0.034580,
2025-10-24T06:56:38.033940+00:00,3.495000,-0.009500,
2025-10-24T06:56:38.038940+00:00,3.500000,-0.017860,
2025-10-24T06:56:38.043940+00:00,3.505000,-0.017100,
2025-10-24T06:56:38.048940+00:00,3.510000,-0.033820,
2025-10-24T06:56:38.053940+00:00,3.515000,-0.028500,
2025-10-24T06:56:38.058940+00:00,3.520000,0.001140,
2025-10-24T06:56:38.063940+00:00,3.525000,-0.000760,
2025-10-24T06:56:38.068940+00:00,3.530000,-0.024700,
2025-10-24T06:56:38.073940+00:00,3.535000,-0.011780,
2025-10-24T06:56:38.078940+00:00,3.540000,0.025840,
2025-10-24T06:56:38.083940+00:00,3.545000,0.045600,
2025-10-24T06:56:38.088940+00:00,3.550000,0.055100,
2025-10-24T06:56:38.093940+00:00,3.555000,0.079040,
2025-10-24T06:56:38.098940+00:00,3.560000,0.102220,
2025-10-24T06:56:38.103940+00:00,3.565000,0.120460,
2025-10-24T06:56:38.108940+00:00,3.570000,0.139080,
2025-10-24T06:56:38.113940+00:00,3.575000,0.151240,
2025-10-24T06:56:38.118940+00:00,3.580000,0.185440,
2025-10-24T06:56:38.123940+00:00,3.585000,0.237500,
2025-10-24T06:56:38.128940+00:00,3.590000,0.239020,
2025-10-24T06:56:38.133940+00:00,3.595000,0.159600,
2025-10-24T06:56:38.138940+00:00,3.600000,0.046740,
2025-10-24T06:56:38.143940+00:00,3.605000,-0.054340,
2025-10-24T06:56:38.148940+00:00,3.610000,-0.118560,
2025-10-24T06:56:38.153940+00:00,3.615000,-0.104120,
2025-10-24T06:56:38.158940+00:00,3.620000,-0.029260,
2025-10-24T06:56:38.163940+00:00,3.625000,0.014440,
2025-10-24T06:56:38.168940+00:00,3.630000,-0.006460,
2025-10-24T06:56:38.173940+00:00,3.635000,-0.017100,
2025-10-24T06:56:38.178940+00:00,3.640000,0.047500,
2025-10-24T06:56:38.183940+00:00,3.645000,0.172140,
2025-10-24T06:56:38.188940+00:00,3.650000,0.302860,
2025-10-24T06:56:38.193940+00:00,3.655000,0.375440,
2025-10-24T06:56:38.198940+00:00,3.660000,0.339720,
2025-10-24T06:56:38.203940+00:00,3.665000,0.210520,
2025-10-24T06:56:38.208940+00:00,3.670000,0.053200,
2025-10-24T06:56:38.213940+00:00,3.675000,-0.059280,
2025-10-24T06:56:38.218940+00:00,3.680000,-0.079420,
2025-10-24T06:56:38.223940+00:00,3.685000,-0.042180,
2025-10-24T06:56:38.228940+00:00,3.690000,-0.050540,
2025-10-24T06:56:38.233940+00:00,3.695000,-0.118180,
2025-10-24T06:56:38.238940+00:00,3.700000,-0.165680,
2025-10-24T06:56:38.243940+00:00,3.705000,-0.168720,
2025-10-24T06:56:38.248940+00:00,3.710000,-0.156940,
2025-10-24T06:56:38.253940+00:00,3.715000,-0.114380,
2025-10-24T06:56:38.258940+00:00,3.720000,-0.039520,
2025-10-24T06:56:38.263940+00:00,3.725000,0.016720,
2025-10-24T06:56:38.268940+00:00,3.730000,0.033820,
2025-10-24T06:56:38.273940+00:00,3.735000,0.040280,
2025-10-24T06:56:38.278940+00:00,3.740000,0.050920,
2025-10-24T06:56:38.283940+00:00,3.745000,0.059660,
2025-10-24T06:56:38.288940+00:00,3.750000,0.081320,
2025-10-24T06:56:38.293940+00:00,3.755000,0.115520,
2025-10-24T06:56:38.298940+00:00,3.760000,0.149340,
2025-10-24T06:56:38.303940+00:00,3.765000,0.173660,
2025-10-24T06:56:38.308940+00:00,3.770000,0.165300,
2025-10-24T06:56:38.313940+00:00,3.775000,0.100700,
2025-10-24T06:56:38.318940+00:00,3.780000,0.020900,
2025-10-24T06:56:38.323940+00:00,3.785000,-0.039900,
2025-10-24T06:56:38.328940+00:00,3.790000,-0.081700,
2025-10-24T06:56:38.333940+00:00,3.795000,-0.111340,
2025-10-24T06:56:38.338940+00:00,3.800000,-0.111340,
2025-10-24T06:56:38.343940+00:00,3.805000,-0.095000,
2025-10-24T06:56:38.348940+00:00,3.810000,-0.085500,
2025-10-24T06:56:38.353940+00:00,3.815000,-0.078280,
2025-10-24T06:56:38.358940+00:00,3.820000,-0.066880,
2025-10-24T06:56:38.363940+00:00,3.825000,-0.064220,
2025-10-24T06:56:38.368940+00:00,3.830000,-0.066500,
2025-10-24T06:56:38.373940+00:00,3.835000,-0.072960,
2025-10-24T06:56:38.378940+00:00,3.840000,-0.091200,
2025-10-24T06:56:38.383940+00:00,3.845000,-0.113240,
2025-10-24T06:56:38.388940+00:00,3.850000,-0.105260,
2025-10-24T06:56:38.393940+00:00,3.855000,-0.048260,
2025-10-24T06:56:38.398940+00:00,3.860000,0.033060,
2025-10-24T06:56:38.403940+00:00,3.865000,0.090820,
2025-10-24T06:56:38.408940+00:00,3.870000,0.090820,
2025-10-24T06:56:38.413940+00:00,3.875000,0.046360,
2025-10-24T06:56:38.418940+00:00,3.880000,0.017860,
2025-10-24T06:56:38.423940+00:00,3.885000,0.034960,
2025-10-24T06:56:38.428940+00:00,3.890000,0.056240,
2025-10-24T06:56:38.433940+00:00,3.895000,0.028120,
2025-10-24T06:56:38.438940+00:00,3.900000,-0.044460,
2025-10-24T06:56:38.443940+00:00,3.905000,-0.111720,
2025-10-24T06:56:38.448940+00:00,3.910000,-0.109820,
2025-10-24T06:56:38.453940+00:00,3.915000,-0.032680,
2025-10-24T06:56:38.458940+00:00,3.920000,0.025840,
2025-10-24T06:56:38.463940+00:00,3.925000,-0.018240,
2025-10-24T06:56:38.468940+00:00,3.930000,-0.101080,
2025-10-24T06:56:38.473940+00:00,3.935000,-0.112100,
2025-10-24T06:56:38.478940+00:00,3.940000,-0.036100,
2025-10-24T06:56:38.483940+00:00,3.945000,0.088920,
2025-10-24T06:56:38.488940+00:00,3.950000,0.270560,
2025-10-24T06:56:38.493940+00:00,3.955000,0.520600,
2025-10-24T06:56:38.498940+00:00,3.960000,0.786600,
2025-10-24T06:56:38.503940+00:00,3.965000,0.986860,
2025-10-24T06:56:38.508940+00:00,3.970000,1.025620,
2025-10-24T06:56:38.513940+00:00,3.975000,0.801800,
2025-10-24T06:56:38.518940+00:00,3.980000,0.351120,
2025-10-24T06:56:38.523940+00:00,3.985000,-0.086260,
2025-10-24T06:56:38.528940+00:00,3.990000,-0.269800,
2025-10-24T06:56:38.533940+00:00,3.995000,-0.229900,
2025-10-24T06:56:38.538940+00:00,4.000000,-0.186200,
2025-10-24T06:56:38.543940+00:00,4.005000,-0.234840,
2025-10-24T06:56:38.548940+00:00,4.010000,-0.282720,
2025-10-24T06:56:38.553940+00:00,4.015000,-0.258780,
2025-10-24T06:56:38.558940+00:00,4.020000,-0.250040,
2025-10-24T06:56:38.563940+00:00,4.025000,-0.364420,
2025-10-24T06:56:38.568940+00:00,4.030000,-0.509960,
2025-10-24T06:56:38.573940+00:00,4.035000,-0.454100,
2025-10-24T06:56:38.578940+00:00,4.040000,-0.085500,
2025-10-24T06:56:38.583940+00:00,4.045000,0.405080,
2025-10-24T06:56:38.588940+00:00,4.050000,0.638400,
2025-10-24T06:56:38.593940+00:00,4.055000,0.380000,
2025-10-24T06:56:38.598940+00:00,4.060000,-0.167960,
2025-10-24T06:56:38.603940+00:00,4.065000,-0.474240,
2025-10-24T06:56:38.608940+00:00,4.070000,-0.245860,
2025-10-24T06:56:38.613940+00:00,4.075000,0.248900,
2025-10-24T06:56:38.618940+00:00,4.080000,0.609520,
2025-10-24T06:56:38.623940+00:00,4.085000,0.727320,
2025-10-24T06:56:38.628940+00:00,4.090000,0.528960,
2025-10-24T06:56:38.633940+00:00,4.095000,-0.006840,
2025-10-24T06:56:38.638940+00:00,4.100000,-0.406600,
2025-10-24T06:56:38.643940+00:00,4.105000,-0.057760,
2025-10-24T06:56:38.648940+00:00,4.110000,0.876280,
2025-10-24T06:56:38.653940+00:00,4.115000,1.388140,
2025-10-24T06:56:38.658940+00:00,4.120000,0.812820,
2025-10-24T06:56:38.663940+00:00,4.125000,-0.186960,
2025-10-24T06:56:38.668940+00:00,4.130000,-0.562020,
2025-10-24T06:56:38.673940+00:00,4.135000,-0.392540,
2025-10-24T06:56:38.678940+00:00,4.140000,-0.480320,
2025-10-24T06:56:38.683940+00:00,4.145000,-0.988000,
2025-10-24T06:56:38.688940+00:00,4.150000,-1.585740,
2025-10-24T06:56:38.693940+00:00,4.155000,-2.140540,
2025-10-24T06:56:38.698940+00:00,4.160000,-2.580960,
2025-10-24T06:56:38.703940+00:00,4.165000,-2.905100,
2025-10-24T06:56:38.708940+00:00,4.170000,-3.184400,
2025-10-24T06:56:38.713940+00:00,4.175000,-3.252040,
2025-10-24T06:56:38.718940+00:00,4.180000,-2.965900,
2025-10-24T06:56:38.723940+00:00,4.185000,-2.524340,
2025-10-24T06:56:38.728940+00:00,4.190000,-2.115460,
2025-10-24T06:56:38.733940+00:00,4.195000,-1.751800,
2025-10-24T06:56:38.738940+00:00,4.200000,-1.458060,
2025-10-24T06:56:38.743940+00:00,4.205000,-1.189780,
2025-10-24T06:56:38.748940+00:00,4.210000,-0.892620,
2025-10-24T06:56:38.753940+00:00,4.215000,-0.728080,
2025-10-24T06:56:38.758940+00:00,4.220000,-0.783940,
2025-10-24T06:56:38.763940+00:00,4.225000,-0.877800,
2025-10-24T06:56:38.768940+00:00,4.230000,-0.931380,
2025-10-24T06:56:38.773940+00:00,4.235000,-0.973180,
2025-10-24T06:56:38.778940+00:00,4.240000,-0.904780,
2025-10-24T06:56:38.783940+00:00,4.245000,-0.698820,
2025-10-24T06:56:38.788940+00:00,4.250000,-0.483740,
2025-10-24T06:56:38.793940+00:00,4.255000,-0.325660,
2025-10-24T06:56:38.798940+00:00,4.260000,-0.259920,
2025-10-24T06:56:38.803940+00:00,4.265000,-0.213180,
2025-10-24T06:56:38.808940+00:00,4.270000,0.041420,
2025-10-24T06:56:38.813940+00:00,4.275000,0.444980,
2025-10-24T06:56:38.818940+00:00,4.280000,0.617120,
2025-10-24T06:56:38.823940+00:00,4.285000,0.555560,
2025-10-24T06:56:38.828940+00:00,4.290000,0.632320,
2025-10-24T06:56:38.833940+00:00,4.295000,0.855000,
2025-10-24T06:56:38.838940+00:00,4.300000,0.944300,
2025-10-24T06:56:38.843940+00:00,4.305000,0.888060,
2025-10-24T06:56:38.848940+00:00,4.310000,0.835620,
2025-10-24T06:56:38.853940+00:00,4.315000,0.807880,
2025-10-24T06:56:38.858940+00:00,4.320000,0.745560,
2025-10-24T06:56:38.863940+00:00,4.325000,0.650560,
2025-10-24T06:56:38.868940+00:00,4.330000,0.571900,
2025-10-24T06:56:38.873940+00:00,4.335000,0.532380,
2025-10-24T06:56:38.878940+00:00,4.340000,0.517560,
2025-10-24T06:56:38.883940+00:00,4.345000,0.495520,
2025-10-24T06:56:38.888940+00:00,4.350000,0.459420,
2025-10-24T06:56:38.893940+00:00,4.355000,0.428260,
2025-10-24T06:56:38.898940+00:00,4.360000,0.394820,
2025-10-24T06:56:38.903940+00:00,4.365000,0.348080,
2025-10-24T06:56:38.908940+00:00,4.370000,0.278920,
2025-10-24T06:56:38.913940+00:00,4.375000,0.180120,
2025-10-24T06:56:38.918940+00:00,4.380000,0.074860,
2025-10-24T06:56:38.923940+00:00,4.385000,0.000760,
2025-10-24T06:56:38.928940+00:00,4.390000,-0.037620,
2025-10-24T06:56:38.933940+00:00,4.395000,-0.062320,
2025-10-24T06:56:38.938940+00:00,4.400000,-0.079040,
2025-10-24T06:56:38.943940+00:00,4.405000,-0.088920,
2025-10-24T06:56:38.948940+00:00,4.410000,-0.090440,
2025-10-24T06:56:38.953940+00:00,4.415000,-0.065740,
2025-10-24T06:56:38.958940+00:00,4.420000,-0.019000,
2025-10-24T06:56:38.963940+00:00,4.425000,0.019760,
2025-10-24T06:56:38.968940+00:00,4.430000,0.034200,
2025-10-24T06:56:38.973940+00:00,4.435000,0.028500,
2025-10-24T06:56:38.978940+00:00,4.440000,0.019380,
2025-10-24T06:56:38.983940+00:00,4.445000,0.033820,
2025-10-24T06:56:38.988940+00:00,4.450000,0.053200,
2025-10-24T06:56:38.993940+00:00,4.455000,0.040660,
2025-10-24T06:56:38.998940+00:00,4.460000,0.011780,
2025-10-24T06:56:39.003940+00:00,4.465000,0.017480,
2025-10-24T06:56:39.008940+00:00,4.470000,0.064980,
2025-10-24T06:56:39.013940+00:00,4.475000,0.149340,
2025-10-24T06:56:39.018940+00:00,4.480000,0.265240,
2025-10-24T06:56:39.023940+00:00,4.485000,0.371260,
2025-10-24T06:56:39.028940+00:00,4.490000,0.424080,
2025-10-24T06:56:39.033940+00:00,4.495000,0.424840,
2025-10-24T06:56:39.038940+00:00,4.500000,0.391020,
2025-10-24T06:56:39.043940+00:00,4.505000,0.355680,
2025-10-24T06:56:39.048940+00:00,4.510000,0.362900,
2025-10-24T06:56:39.053940+00:00,4.515000,0.408500,
2025-10-24T06:56:39.058940+00:00,4.520000,0.437760,
2025-10-24T06:56:39.063940+00:00,4.525000,0.408880,
2025-10-24T06:56:39.068940+00:00,4.530000,0.333260,
2025-10-24T06:56:39.073940+00:00,4.535000,0.244720,
2025-10-24T06:56:39.078940+00:00,4.540000,0.177840,
2025-10-24T06:56:39.083940+00:00,4.545000,0.140600,
2025-10-24T06:56:39.088940+00:00,4.550000,0.121980,
2025-10-24T06:56:39.093940+00:00,4.555000,0.115140,
2025-10-24T06:56:39.098940+00:00,4.560000,0.111340,
2025-10-24T06:56:39.103940+00:00,4.565000,0.079800,
2025-10-24T06:56:39.108940+00:00,4.570000,0.030020,
2025-10-24T06:56:39.113940+00:00,4.575000,0.007980,
2025-10-24T06:56:39.118940+00:00,4.580000,0.025080,
2025-10-24T06:56:39.123940+00:00,4.585000,0.043320,
2025-10-24T06:56:39.128940+00:00,4.590000,0.032680,
2025-10-24T06:56:39.133940+00:00,4.595000,0.000760,
2025-10-24T06:56:39.138940+00:00,4.600000,-0.028500,
2025-10-24T06:56:39.143940+00:00,4.605000,-0.030780,
2025-10-24T06:56:39.148940+00:00,4.610000,0.000760,
2025-10-24T06:56:39.153940+00:00,4.615000,0.049780,
2025-10-24T06:56:39.158940+00:00,4.620000,0.093480,
2025-10-24T06:56:39.163940+00:00,4.625000,0.108300,
2025-10-24T06:56:39.168940+00:00,4.630000,0.086640,
2025-10-24T06:56:39.173940+00:00,4.635000,0.064220,
2025-10-24T06:56:39.178940+00:00,4.640000,0.085880,
2025-10-24T06:56:39.183940+00:00,4.645000,0.131860,
2025-10-24T06:56:39.188940+00:00,4.650000,0.153900,
2025-10-24T06:56:39.193940+00:00,4.655000,0.141740,
2025-10-24T06:56:39.198940+00:00,4.660000,0.122740,
2025-10-24T06:56:39.203940+00:00,4.665000,0.111720,
2025-10-24T06:56:39.208940+00:00,4.670000,0.096520,
2025-10-24T06:56:39.213940+00:00,4.675000,0.066120,
2025-10-24T06:56:39.218940+00:00,4.680000,0.031160,
2025-10-24T06:56:39.223940+00:00,4.685000,0.014440,
2025-10-24T06:56:39.228940+00:00,4.690000,0.013300,
2025-10-24T06:56:39.233940+00:00,4.695000,0.015200,
2025-10-24T06:56:39.238940+00:00,4.700000,0.015580,
2025-10-24T06:56:39.243940+00:00,4.705000,0.022040,
2025-10-24T06:56:39.248940+00:00,4.710000,0.031160,
2025-10-24T06:56:39.253940+00:00,4.715000,0.042560,
2025-10-24T06:56:39.258940+00:00,4.720000,0.059660,
2025-10-24T06:56:39.263940+00:00,4.725000,0.084740,
2025-10-24T06:56:39.268940+00:00,4.730000,0.113620,
2025-10-24T06:56:39.273940+00:00,4.735000,0.144780,
2025-10-24T06:56:39.278940+00:00,4.740000,0.180880,
2025-10-24T06:56:39.283940+00:00,4.745000,0.209380,
2025-10-24T06:56:39.288940+00:00,4.750000,0.223060,
2025-10-24T06:56:39.293940+00:00,4.755000,0.224200,
2025-10-24T06:56:39.298940+00:00,4.760000,0.215460,
2025-10-24T06:56:39.303940+00:00,4.765000,0.197980,
2025-10-24T06:56:39.308940+00:00,4.770000,0.181640,
2025-10-24T06:56:39.313940+00:00,4.775000,0.166820,
2025-10-24T06:56:39.318940+00:00,4.780000,0.141360,
2025-10-24T06:56:39.323940+00:00,4.785000,0.101460,
2025-10-24T06:56:39.328940+00:00,4.790000,0.062320,
2025-10-24T06:56:39.333940+00:00,4.795000,0.045220,
2025-10-24T06:56:39.338940+00:00,4.800000,0.057380,
2025-10-24T06:56:39.343940+00:00,4.805000,0.064600,
2025-10-24T06:56:39.348940+00:00,4.810000,0.038000,
2025-10-24T06:56:39.353940+00:00,4.815000,-0.002660,
2025-10-24T06:56:39.358940+00:00,4.820000,-0.028880,
2025-10-24T06:56:39.363940+00:00,4.825000,-0.033820,
2025-10-24T06:56:39.368940+00:00,4.830000,-0.026600,
2025-10-24T06:56:39.373940+00:00,4.835000,-0.014820,
2025-10-24T06:56:39.378940+00:00,4.840000,-0.003040,
2025-10-24T06:56:39.383940+00:00,4.845000,0.018240,
2025-10-24T06:56:39.388940+00:00,4.850000,0.044460,
2025-10-24T06:56:39.393940+00:00,4.855000,0.051680,
2025-10-24T06:56:39.398940+00:00,4.860000,0.031920,
2025-10-24T06:56:39.403940+00:00,4.865000,0.017100,
2025-10-24T06:56:39.408940+00:00,4.870000,0.019760,
2025-10-24T06:56:39.413940+00:00,4.875000,0.028120,
2025-10-24T06:56:39.418940+00:00,4.880000,0.019380,
2025-10-24T06:56:39.423940+00:00,4.885000,-0.005320,
2025-10-24T06:56:39.428940+00:00,4.890000,-0.026600,
2025-10-24T06:56:39.433940+00:00,4.895000,-0.021660,
2025-10-24T06:56:39.438940+00:00,4.900000,-0.000760,
2025-10-24T06:56:39.443940+00:00,4.905000,0.035340,
2025-10-24T06:56:39.448940+00:00,4.910000,0.112860,
2025-10-24T06:56:39.453940+00:00,4.915000,0.224200,
2025-10-24T06:56:39.458940+00:00,4.920000,0.296780,
2025-10-24T06:56:39.463940+00:00,4.925000,0.302860,
2025-10-24T06:56:39.468940+00:00,4.930000,0.292220,
2025-10-24T06:56:39.473940+00:00,4.935000,0.307800,
2025-10-24T06:56:39.478940+00:00,4.940000,0.355680,
2025-10-24T06:56:39.483940+00:00,4.945000,0.416100,
2025-10-24T06:56:39.488940+00:00,4.950000,0.463220,
2025-10-24T06:56:39.493940+00:00,4.955000,0.476520,
2025-10-24T06:56:39.498940+00:00,4.960000,0.435860,
2025-10-24T06:56:39.503940+00:00,4.965000,0.346180,
2025-10-24T06:56:39.508940+00:00,4.970000,0.248520,
2025-10-24T06:56:39.513940+00:00,4.975000,0.161880,
2025-10-24T06:56:39.518940+00:00,4.980000,0.060040,
2025-10-24T06:56:39.523940+00:00,4.985000,-0.065740,
2025-10-24T06:56:39.528940+00:00,4.990000,-0.164540,
2025-10-24T06:56:39.533940+00:00,4.995000,-0.201020,
2025-10-24T06:56:39.538940+00:00,5.000000,-0.190000,
2025-10-24T06:56:39.543940+00:00,5.005000,-0.180120,
2025-10-24T06:56:39.548940+00:00,5.010000,-0.192660,
2025-10-24T06:56:39.553940+00:00,5.015000,-0.196840,
2025-10-24T06:56:39.558940+00:00,5.020000,-0.173660,
2025-10-24T06:56:39.563940+00:00,5.025000,-0.173660,
2025-10-24T06:56:39.568940+00:00,5.030000,-0.210900,
2025-10-24T06:56:39.573940+00:00,5.035000,-0.168340,
2025-10-24T06:56:39.578940+00:00,5.040000,0.069920,
2025-10-24T06:56:39.583940+00:00,5.045000,0.432440,
2025-10-24T06:56:39.588940+00:00,5.050000,0.713640,
2025-10-24T06:56:39.593940+00:00,5.055000,0.796100,
2025-10-24T06:56:39.598940+00:00,5.060000,0.737580,
2025-10-24T06:56:39.603940+00:00,5.065000,0.592040,
2025-10-24T06:56:39.608940+00:00,5.070000,0.310840,
2025-10-24T06:56:39.613940+00:00,5.075000,-0.096520,
2025-10-24T06:56:39.618940+00:00,5.080000,-0.449160,
2025-10-24T06:56:39.623940+00:00,5.085000,-0.572660,
2025-10-24T06:56:39.628940+00:00,5.090000,-0.487160,
2025-10-24T06:56:39.633940+00:00,5.095000,-0.342000,
2025-10-24T06:56:39.638940+00:00,5.100000,-0.245480,
2025-10-24T06:56:39.643940+00:00,5.105000,-0.201780,
2025-10-24T06:56:39.648940+00:00,5.110000,-0.178220,
2025-10-24T06:56:39.653940+00:00,5.115000,-0.163780,
2025-10-24T06:56:39.658940+00:00,5.120000,-0.160740,
2025-10-24T06:56:39.663940+00:00,5.125000,-0.155800,
2025-10-24T06:56:39.668940+00:00,5.130000,-0.132620,
2025-10-24T06:56:39.673940+00:00,5.135000,-0.105260,
2025-10-24T06:56:39.678940+00:00,5.140000,-0.083600,
2025-10-24T06:56:39.683940+00:00,5.145000,-0.082460,
2025-10-24T06:56:39.688940+00:00,5.150000,-0.098800,
2025-10-24T06:56:39.693940+00:00,5.155000,-0.118560,
2025-10-24T06:56:39.698940+00:00,5.160000,-0.132620,
2025-10-24T06:56:39.703940+00:00,5.165000,-0.145540,
2025-10-24T06:56:39.708940+00:00,5.170000,-0.164540,
2025-10-24T06:56:39.713940+00:00,5.175000,-0.190000,
2025-10-24T06:56:39.718940+00:00,5.180000,-0.213940,
2025-10-24T06:56:39.723940+00:00,5.185000,-0.238260,
2025-10-24T06:56:39.728940+00:00,5.190000,-0.256880,
2025-10-24T06:56:39.733940+00:00,5.195000,-0.266000,
2025-10-24T06:56:39.738940+00:00,5.200000,-0.260300,
2025-10-24T06:56:39.743940+00:00,5.205000,-0.252700,
2025-10-24T06:56:39.748940+00:00,5.210000,-0.252320,
2025-10-24T06:56:39.753940+00:00,5.215000,-0.229900,
2025-10-24T06:56:39.758940+00:00,5.220000,-0.159980,
2025-10-24T06:56:39.763940+00:00,5.225000,-0.062320,
2025-10-24T06:56:39.768940+00:00,5.230000,0.022040,
2025-10-24T06:56:39.773940+00:00,5.235000,0.072960,
2025-10-24T06:56:39.778940+00:00,5.240000,0.104120,
2025-10-24T06:56:39.783940+00:00,5.245000,0.135660,
2025-10-24T06:56:39.788940+00:00,5.250000,0.174800,
2025-10-24T06:56:39.793940+00:00,5.255000,0.206720,
2025-10-24T06:56:39.798940+00:00,5.260000,0.237120,
2025-10-24T06:56:39.803940+00:00,5.265000,0.274360,
2025-10-24T06:56:39.808940+00:00,5.270000,0.284620,
2025-10-24T06:56:39.813940+00:00,5.275000,0.249660,
2025-10-24T06:56:39.818940+00:00,5.280000,0.209000,
2025-10-24T06:56:39.823940+00:00,5.285000,0.191900,
2025-10-24T06:56:39.828940+00:00,5.290000,0.190760,
2025-10-24T06:56:39.833940+00:00,5.295000,0.184300,
2025-10-24T06:56:39.838940+00:00,5.300000,0.167200,
2025-10-24T06:56:39.843940+00:00,5.305000,0.150100,
2025-10-24T06:56:39.848940+00:00,5.310000,0.157700,
2025-10-24T06:56:39.853940+00:00,5.315000,0.169480,
2025-10-24T06:56:39.858940+00:00,5.320000,0.144780,
2025-10-24T06:56:39.863940+00:00,5.325000,0.126920,
2025-10-24T06:56:39.868940+00:00,5.330000,0.169480,
2025-10-24T06:56:39.873940+00:00,5.335000,0.120460,
2025-10-24T06:56:39.878940+00:00,5.340000,-0.079420,
2025-10-24T06:56:39.883940+00:00,5.345000,-0.022040,
2025-10-24T06:56:39.888940+00:00,5.350000,0.465120,
2025-10-24T06:56:39.893940+00:00,5.355000,0.391400,
2025-10-24T06:56:39.898940+00:00,5.360000,-1.535960,
2025-10-24T06:56:39.903940+00:00,5.365000,-5.164960,
2025-10-24T06:56:39.908940+00:00,5.370000,-8.983580,
2025-10-24T06:56:39.913940+00:00,5.375000,-11.783420,
2025-10-24T06:56:39.918940+00:00,5.380000,-13.307220,
2025-10-24T06:56:39.923940+00:00,5.385000,-13.448200,
2025-10-24T06:56:39.928940+00:00,5.390000,-11.743900,
2025-10-24T06:56:39.933940+00:00,5.395000,-8.341000,
2025-10-24T06:56:39.938940+00:00,5.400000,-4.541000,
2025-10-24T06:56:39.943940+00:00,5.405000,-1.588020,
2025-10-24T06:56:39.948940+00:00,5.410000,0.296400,
2025-10-24T06:56:39.953940+00:00,5.415000,1.352040,
2025-10-24T06:56:39.958940+00:00,5.420000,1.684920,
2025-10-24T06:56:39.963940+00:00,5.425000,1.558760,
2025-10-24T06:56:39.968940+00:00,5.430000,1.445140,
2025-10-24T06:56:39.973940+00:00,5.435000,1.538620,
2025-10-24T06:56:39.978940+00:00,5.440000,1.707340,
2025-10-24T06:56:39.983940+00:00,5.445000,1.787140,
2025-10-24T06:56:39.988940+00:00,5.450000,1.793600,
2025-10-24T06:56:39.993940+00:00,5.455000,1.846420,
2025-10-24T06:56:39.998940+00:00,5.460000,1.865800,
2025-10-24T06:56:40.003940+00:00,5.465000,1.695940,
2025-10-24T06:56:40.008940+00:00,5.470000,1.378640,
2025-10-24T06:56:40.013940+00:00,5.475000,1.094780,
2025-10-24T06:56:40.018940+00:00,5.480000,0.995220,
2025-10-24T06:56:40.023940+00:00,5.485000,1.103900,
2025-10-24T06:56:40.028940+00:00,5.490000,1.292380,
2025-10-24T06:56:40.033940+00:00,5.495000,1.398020,
2025-10-24T06:56:40.038940+00:00,5.500000,1.411320,
2025-10-24T06:56:40.043940+00:00,5.505000,1.410180,
2025-10-24T06:56:40.048940+00:00,5.510000,1.386240,
2025-10-24T06:56:40.053940+00:00,5.515000,1.331140,
2025-10-24T06:56:40.058940+00:00,5.520000,1.280980,
2025-10-24T06:56:40.063940+00:00,5.525000,1.211820,
2025-10-24T06:56:40.068940+00:00,5.530000,1.109220,
2025-10-24T06:56:40.073940+00:00,5.535000,1.028660,
2025-10-24T06:56:40.078940+00:00,5.540000,0.984960,
2025-10-24T06:56:40.083940+00:00,5.545000,0.946960,
2025-10-24T06:56:40.088940+00:00,5.550000,0.915040,
2025-10-24T06:56:40.093940+00:00,5.555000,0.881600,
2025-10-24T06:56:40.098940+00:00,5.560000,0.813200,
2025-10-24T06:56:40.103940+00:00,5.565000,0.734540,
2025-10-24T06:56:40.108940+00:00,5.570000,0.681720,
2025-10-24T06:56:40.113940+00:00,5.575000,0.644100,
2025-10-24T06:56:40.118940+00:00,5.580000,0.604960,
2025-10-24T06:56:40.123940+00:00,5.585000,0.579500,
2025-10-24T06:56:40.128940+00:00,5.590000,0.557840,
2025-10-24T06:56:40.133940+00:00,5.595000,0.508440,
2025-10-24T06:56:40.138940+00:00,5.600000,0.462840,
2025-10-24T06:56:40.143940+00:00,5.605000,0.478040,
2025-10-24T06:56:40.148940+00:00,5.610000,0.541880,
2025-10-24T06:56:40.153940+00:00,5.615000,0.613320,
2025-10-24T06:56:40.158940+00:00,5.620000,0.632320,
2025-10-24T06:56:40.163940+00:00,5.625000,0.540740,
2025-10-24T06:56:40.168940+00:00,5.630000,0.403180,
2025-10-24T06:56:40.173940+00:00,5.635000,0.373920,
2025-10-24T06:56:40.178940+00:00,5.640000,0.481840,
2025-10-24T06:56:40.183940+00:00,5.645000,0.578360,
2025-10-24T06:56:40.188940+00:00,5.650000,0.554420,
2025-10-24T06:56:40.193940+00:00,5.655000,0.432820,
2025-10-24T06:56:40.198940+00:00,5.660000,0.289180,
2025-10-24T06:56:40.203940+00:00,5.665000,0.212800,
2025-10-24T06:56:40.208940+00:00,5.670000,0.232180,
2025-10-24T06:56:40.213940+00:00,5.675000,0.277400,
2025-10-24T06:56:40.218940+00:00,5.680000,0.292980,
2025-10-24T06:56:40.223940+00:00,5.685000,0.304380,
2025-10-24T06:56:40.228940+00:00,5.690000,0.309320,
2025-10-24T06:56:40.233940+00:00,5.695000,0.278160,
2025-10-24T06:56:40.238940+00:00,5.700000,0.251180,
2025-10-24T06:56:40.243940+00:00,5.705000,0.267140,
2025-10-24T06:56:40.248940+00:00,5.710000,0.278160,
2025-10-24T06:56:40.253940+00:00,5.715000,0.263340,
2025-10-24T06:56:40.258940+00:00,5.720000,0.280060,
2025-10-24T06:56:40.263940+00:00,5.725000,0.329460,
2025-10-24T06:56:40.268940+00:00,5.730000,0.364800,
2025-10-24T06:56:40.273940+00:00,5.735000,0.385700,
2025-10-24T06:56:40.278940+00:00,5.740000,0.378480,
2025-10-24T06:56:40.283940+00:00,5.745000,0.330220,
2025-10-24T06:56:40.288940+00:00,5.750000,0.291460,
2025-10-24T06:56:40.293940+00:00,5.755000,0.295640,
2025-10-24T06:56:40.298940+00:00,5.760000,0.287280,
2025-10-24T06:56:40.303940+00:00,5.765000,0.257640,
2025-10-24T06:56:40.308940+00:00,5.770000,0.259540,
2025-10-24T06:56:40.313940+00:00,5.775000,0.270560,
2025-10-24T06:56:40.318940+00:00,5.780000,0.253840,
2025-10-24T06:56:40.323940+00:00,5.785000,0.247380,
2025-10-24T06:56:40.328940+00:00,5.790000,0.248520,
2025-10-24T06:56:40.333940+00:00,5.795000,0.221160,
2025-10-24T06:56:40.338940+00:00,5.800000,0.211660,
2025-10-24T06:56:40.343940+00:00,5.805000,0.254600,
2025-10-24T06:56:40.348940+00:00,5.810000,0.276640,
2025-10-24T06:56:40.353940+00:00,5.815000,0.252320,
2025-10-24T06:56:40.358940+00:00,5.820000,0.232940,
2025-10-24T06:56:40.363940+00:00,5.825000,0.218500,
2025-10-24T06:56:40.368940+00:00,5.830000,0.194940,
2025-10-24T06:56:40.373940+00:00,5.835000,0.196460,
2025-10-24T06:56:40.378940+00:00,5.840000,0.202920,
2025-10-24T06:56:40.383940+00:00,5.845000,0.173280,
2025-10-24T06:56:40.388940+00:00,5.850000,0.159220,
2025-10-24T06:56:40.393940+00:00,5.855000,0.190000,
2025-10-24T06:56:40.398940+00:00,5.860000,0.193420,
2025-10-24T06:56:40.403940+00:00,5.865000,0.163780,
2025-10-24T06:56:40.408940+00:00,5.870000,0.175180,
2025-10-24T06:56:40.413940+00:00,5.875000,0.211280,
2025-10-24T06:56:40.418940+00:00,5.880000,0.217740,
2025-10-24T06:56:40.423940+00:00,5.885000,0.218500,
2025-10-24T06:56:40.428940+00:00,5.890000,0.225340,
2025-10-24T06:56:40.433940+00:00,5.895000,0.203680,
2025-10-24T06:56:40.438940+00:00,5.900000,0.180880,
2025-10-24T06:56:40.443940+00:00,5.905000,0.174420,
2025-10-24T06:56:40.448940+00:00,5.910000,0.149720,
2025-10-24T06:56:40.453940+00:00,5.915000,0.129960,
2025-10-24T06:56:40.458940+00:00,5.920000,0.154660,
2025-10-24T06:56:40.463940+00:00,5.925000,0.145540,
2025-10-24T06:56:40.468940+00:00,5.930000,0.075240,
2025-10-24T06:56:40.473940+00:00,5.935000,0.060040,
2025-10-24T06:56:40.478940+00:00,5.940000,0.134900,
2025-10-24T06:56:40.483940+00:00,5.945000,0.201780,
2025-10-24T06:56:40.488940+00:00,5.950000,0.228380,
2025-10-24T06:56:40.493940+00:00,5.955000,0.236360,
2025-10-24T06:56:40.498940+00:00,5.960000,0.214320,
2025-10-24T06:56:40.503940+00:00,5.965000,0.178220,
2025-10-24T06:56:40.508940+00:00,5.970000,0.160360,
2025-10-24T06:56:40.513940+00:00,5.975000,0.122360,
2025-10-24T06:56:40.518940+00:00,5.980000,0.064220,
2025-10-24T06:56:40.523940+00:00,5.985000,0.066880,
2025-10-24T06:56:40.528940+00:00,5.990000,0.113240,
2025-10-24T06:56:40.533940+00:00,5.995000,0.132240,
2025-10-24T06:56:40.538940+00:00,6.000000,0.126160,
2025-10-24T06:56:40.543940+00:00,6.005000,0.082460,
2025-10-24T06:56:40.548940+00:00,6.010000,-0.007980,
2025-10-24T06:56:40.553940+00:00,6.015000,-0.054340,
2025-10-24T06:56:40.558940+00:00,6.020000,-0.012160,
2025-10-24T06:56:40.563940+00:00,6.025000,0.037240,
2025-10-24T06:56:40.568940+00:00,6.030000,0.057760,
2025-10-24T06:56:40.573940+00:00,6.035000,0.082080,
2025-10-24T06:56:40.578940+00:00,6.040000,0.058520,
2025-10-24T06:56:40.583940+00:00,6.045000,-0.045600,
2025-10-24T06:56:40.588940+00:00,6.050000,-0.084740,
2025-10-24T06:56:40.593940+00:00,6.055000,0.032300,
2025-10-24T06:56:40.598940+00:00,6.060000,0.147820,
2025-10-24T06:56:40.603940+00:00,6.065000,0.139080,
2025-10-24T06:56:40.608940+00:00,6.070000,0.110200,
2025-10-24T06:56:40.613940+00:00,6.075000,0.142120,
2025-10-24T06:56:40.618940+00:00,6.080000,0.174800,
2025-10-24T06:56:40.623940+00:00,6.085000,0.161120,
2025-10-24T06:56:40.628940+00:00,6.090000,0.115520,
2025-10-24T06:56:40.633940+00:00,6.095000,0.084360,
2025-10-24T06:56:40.638940+00:00,6.100000,0.098420,
2025-10-24T06:56:40.643940+00:00,6.105000,0.089680,
2025-10-24T06:56:40.648940+00:00,6.110000,0.047500,
2025-10-24T06:56:40.653940+00:00,6.115000,0.052820,
2025-10-24T06:56:40.658940+00:00,6.120000,0.071820,
2025-10-24T06:56:40.663940+00:00,6.125000,-0.029640,
2025-10-24T06:56:40.668940+00:00,6.130000,-0.184300,
2025-10-24T06:56:40.673940+00:00,6.135000,-0.193040,
2025-10-24T06:56:40.678940+00:00,6.140000,-0.072960,
2025-10-24T06:56:40.683940+00:00,6.145000,0.009120,
2025-10-24T06:56:40.688940+00:00,6.150000,0.006080,
2025-10-24T06:56:40.693940+00:00,6.155000,-0.022040,
2025-10-24T06:56:40.698940+00:00,6.160000,-0.027740,
2025-10-24T06:56:40.703940+00:00,6.165000,-0.020900,
2025-10-24T06:56:40.708940+00:00,6.170000,-0.031540,
2025-10-24T06:56:40.713940+00:00,6.175000,-0.065360,
2025-10-24T06:56:40.718940+00:00,6.180000,-0.085120,
2025-10-24T06:56:40.723940+00:00,6.185000,-0.061180,
2025-10-24T06:56:40.728940+00:00,6.190000,-0.046360,
2025-10-24T06:56:40.733940+00:00,6.195000,-0.072580,
2025-10-24T06:56:40.738940+00:00,6.200000,-0.071820,
2025-10-24T06:56:40.743940+00:00,6.205000,-0.022800,
2025-10-24T06:56:40.748940+00:00,6.210000,0.003420,
2025-10-24T06:56:40.753940+00:00,6.215000,-0.012160,
2025-10-24T06:56:40.758940+00:00,6.220000,-0.014060,
2025-10-24T06:56:40.763940+00:00,6.225000,-0.001520,
2025-10-24T06:56:40.768940+00:00,6.230000,-0.003420,
2025-10-24T06:56:40.773940+00:00,6.235000,0.007980,
2025-10-24T06:56:40.778940+00:00,6.240000,0.051300,
2025-10-24T06:56:40.783940+00:00,6.245000,0.087020,
2025-10-24T06:56:40.788940+00:00,6.250000,0.084740,
2025-10-24T06:56:40.793940+00:00,6.255000,0.042940,
2025-10-24T06:56:40.798940+00:00,6.260000,-0.010260,
2025-10-24T06:56:40.803940+00:00,6.265000,-0.010260,
2025-10-24T06:56:40.808940+00:00,6.270000,0.036480,
2025-10-24T06:56:40.813940+00:00,6.275000,0.021660,
2025-10-24T06:56:40.818940+00:00,6.280000,-0.058900,
2025-10-24T06:56:40.823940+00:00,6.285000,-0.073720,
2025-10-24T06:56:40.828940+00:00,6.290000,-0.011400,
2025-10-24T06:56:40.833940+00:00,6.295000,0.017480,
2025-10-24T06:56:40.838940+00:00,6.300000,0.004180,
2025-10-24T06:56:40.843940+00:00,6.305000,0.015960,
2025-10-24T06:56:40.848940+00:00,6.310000,0.046740,
2025-10-24T06:56:40.853940+00:00,6.315000,0.055860,
2025-10-24T06:56:40.858940+00:00,6.320000,0.041420,
2025-10-24T06:56:40.863940+00:00,6.325000,0.027360,
2025-10-24T06:56:40.868940+00:00,6.330000,0.036100,
2025-10-24T06:56:40.873940+00:00,6.335000,0.045220,
2025-10-24T06:56:40.878940+00:00,6.340000,-0.012920,
2025-10-24T06:56:40.883940+00:00,6.345000,-0.100320,
2025-10-24T06:56:40.888940+00:00,6.350000,-0.109440,
2025-10-24T06:56:40.893940+00:00,6.355000,-0.066500,
2025-10-24T06:56:40.898940+00:00,6.360000,-0.072580,
2025-10-24T06:56:40.903940+00:00,6.365000,-0.096140,
2025-10-24T06:56:40.908940+00:00,6.370000,-0.060040,
2025-10-24T06:56:40.913940+00:00,6.375000,-0.012160,
2025-10-24T06:56:40.918940+00:00,6.380000,-0.023940,
2025-10-24T06:56:40.923940+00:00,6.385000,-0.039140,
2025-10-24T06:56:40.928940+00:00,6.390000,0.001140,
2025-10-24T06:56:40.933940+00:00,6.395000,0.042180,
2025-10-24T06:56:40.938940+00:00,6.400000,0.037240,
2025-10-24T06:56:40.943940+00:00,6.405000,0.020140,
2025-10-24T06:56:40.948940+00:00,6.410000,0.026220,
2025-10-24T06:56:40.953940+00:00,6.415000,0.051680,
2025-10-24T06:56:40.958940+00:00,6.420000,0.045600,
2025-10-24T06:56:40.963940+00:00,6.425000,-0.024320,
2025-10-24T06:56:40.968940+00:00,6.430000,-0.095000,
2025-10-24T06:56:40.973940+00:00,6.435000,-0.077900,
2025-10-24T06:56:40.978940+00:00,6.440000,-0.029260,
2025-10-24T06:56:40.983940+00:00,6.445000,-0.031160,
2025-10-24T06:56:40.988940+00:00,6.450000,-0.049400,
2025-10-24T06:56:40.993940+00:00,6.455000,-0.032300,
2025-10-24T06:56:40.998940+00:00,6.460000,-0.019000,
2025-10-24T06:56:41.003940+00:00,6.465000,-0.023940,
2025-10-24T06:56:41.008940+00:00,6.470000,-0.020900,
2025-10-24T06:56:41.013940+00:00,6.475000,-0.011780,
2025-10-24T06:56:41.018940+00:00,6.480000,-0.008740,
2025-10-24T06:56:41.023940+00:00,6.485000,-0.003040,
2025-10-24T06:56:41.028940+00:00,6.490000,-0.005700,
2025-10-24T06:56:41.033940+00:00,6.495000,-0.025840,
2025-10-24T06:56:41.038940+00:00,6.500000,-0.030400,
2025-10-24T06:56:41.043940+00:00,6.505000,-0.015580,
2025-10-24T06:56:41.048940+00:00,6.510000,-0.023560,
2025-10-24T06:56:41.053940+00:00,6.515000,-0.041420,
2025-10-24T06:56:41.058940+00:00,6.520000,-0.031920,
2025-10-24T06:56:41.063940+00:00,6.525000,-0.022420,
2025-10-24T06:56:41.068940+00:00,6.530000,-0.034960,
2025-10-24T06:56:41.073940+00:00,6.535000,-0.036100,
2025-10-24T06:56:41.078940+00:00,6.540000,-0.025840,
2025-10-24T06:56:41.083940+00:00,6.545000,-0.031540,
2025-10-24T06:56:41.088940+00:00,6.550000,-0.041420,
2025-10-24T06:56:41.093940+00:00,6.555000,-0.033820,
2025-10-24T06:56:41.098940+00:00,6.560000,-0.028500,
2025-10-24T06:56:41.103940+00:00,6.565000,-0.022420,
2025-10-24T06:56:41.108940+00:00,6.570000,-0.008740,
2025-10-24T06:56:41.113940+00:00,6.575000,-0.016340,
2025-10-24T06:56:41.118940+00:00,6.580000,-0.041040,
2025-10-24T06:56:41.123940+00:00,6.585000,-0.019380,
2025-10-24T06:56:41.128940+00:00,6.590000,0.028120,
2025-10-24T06:56:41.133940+00:00,6.595000,0.020900,
2025-10-24T06:56:41.138940+00:00,6.600000,-0.010640,
2025-10-24T06:56:41.143940+00:00,6.605000,0.013680,
2025-10-24T06:56:41.148940+00:00,6.610000,0.056620,
2025-10-24T06:56:41.153940+00:00,6.615000,0.061940,
2025-10-24T06:56:41.158940+00:00,6.620000,0.061180,
2025-10-24T06:56:41.163940+00:00,6.625000,0.051680,
2025-10-24T06:56:41.168940+00:00,6.630000,0.022420,
2025-10-24T06:56:41.173940+00:00,6.635000,0.028120,
2025-10-24T06:56:41.178940+00:00,6.640000,0.056240,
2025-10-24T06:56:41.183940+00:00,6.645000,0.044840,
2025-10-24T06:56:41.188940+00:00,6.650000,0.030400,
2025-10-24T06:56:41.193940+00:00,6.655000,0.045600,
2025-10-24T06:56:41.198940+00:00,6.660000,0.041040,
2025-10-24T06:56:41.203940+00:00,6.665000,0.021660,
2025-10-24T06:56:41.208940+00:00,6.670000,0.026980,
2025-10-24T06:56:41.213940+00:00,6.675000,0.023560,
2025-10-24T06:56:41.218940+00:00,6.680000,0.001900,
2025-10-24T06:56:41.223940+00:00,6.685000,0.005320,
2025-10-24T06:56:41.228940+00:00,6.690000,0.005320,
2025-10-24T06:56:41.233940+00:00,6.695000,-0.020140,
2025-10-24T06:56:41.238940+00:00,6.700000,-0.019380,
2025-10-24T06:56:41.243940+00:00,6.705000,-0.006080,
2025-10-24T06:56:41.248940+00:00,6.710000,-0.044460,
2025-10-24T06:56:41.253940+00:00,6.715000,-0.087400,
2025-10-24T06:56:41.258940+00:00,6.720000,-0.055100,
2025-10-24T06:56:41.263940+00:00,6.725000,-0.013300,
2025-10-24T06:56:41.268940+00:00,6.730000,-0.022420,
2025-10-24T06:56:41.273940+00:00,6.735000,-0.003800,
2025-10-24T06:56:41.278940+00:00,6.740000,0.066500,
2025-10-24T06:56:41.283940+00:00,6.745000,0.101460,
2025-10-24T06:56:41.288940+00:00,6.750000,0.094620,
2025-10-24T06:56:41.293940+00:00,6.755000,0.094240,
2025-10-24T06:56:41.298940+00:00,6.760000,0.093480,
2025-10-24T06:56:41.303940+00:00,6.765000,0.076380,
2025-10-24T06:56:41.308940+00:00,6.770000,0.050160,
2025-10-24T06:56:41.313940+00:00,6.775000,0.023180,
2025-10-24T06:56:41.318940+00:00,6.780000,0.011780,
2025-10-24T06:56:41.323940+00:00,6.785000,-0.023940,
2025-10-24T06:56:41.328940+00:00,6.790000,-0.116660,
2025-10-24T06:56:41.333940+00:00,6.795000,-0.148200,
2025-10-24T06:56:41.338940+00:00,6.800000,-0.060420,
2025-10-24T06:56:41.343940+00:00,6.805000,-0.025080,
2025-10-24T06:56:41.348940+00:00,6.810000,-0.117420,
2025-10-24T06:56:41.353940+00:00,6.815000,-0.169860,
2025-10-24T06:56:41.358940+00:00,6.820000,-0.129580,
2025-10-24T06:56:41.363940+00:00,6.825000,-0.096140,
2025-10-24T06:56:41.368940+00:00,6.830000,-0.077140,
2025-10-24T06:56:41.373940+00:00,6.835000,-0.029260,
2025-10-24T06:56:41.378940+00:00,6.840000,0.016340,
2025-10-24T06:56:41.383940+00:00,6.845000,0.043320,
2025-10-24T06:56:41.388940+00:00,6.850000,0.087400,
2025-10-24T06:56:41.393940+00:00,6.855000,0.149720,
2025-10-24T06:56:41.398940+00:00,6.860000,0.178600,
2025-10-24T06:56:41.403940+00:00,6.865000,0.143640,
2025-10-24T06:56:41.408940+00:00,6.870000,0.072580,
2025-10-24T06:56:41.413940+00:00,6.875000,0.013680,
2025-10-24T06:56:41.418940+00:00,6.880000,-0.027740,
2025-10-24T06:56:41.423940+00:00,6.885000,-0.070680,
2025-10-24T06:56:41.428940+00:00,6.890000,-0.107160,
2025-10-24T06:56:41.433940+00:00,6.895000,-0.123880,
2025-10-24T06:56:41.438940+00:00,6.900000,-0.121980,
2025-10-24T06:56:41.443940+00:00,6.905000,-0.104120,
2025-10-24T06:56:41.448940+00:00,6.910000,-0.076000,
2025-10-24T06:56:41.453940+00:00,6.915000,-0.060420,
2025-10-24T06:56:41.458940+00:00,6.920000,-0.060040,
2025-10-24T06:56:41.463940+00:00,6.925000,-0.064600,
2025-10-24T06:56:41.468940+00:00,6.930000,-0.065740,
2025-10-24T06:56:41.473940+00:00,6.935000,-0.067260,
2025-10-24T06:56:41.478940+00:00,6.940000,-0.064600,
2025-10-24T06:56:41.483940+00:00,6.945000,-0.058140,
2025-10-24T06:56:41.488940+00:00,6.950000,-0.050160,
2025-10-24T06:56:41.493940+00:00,6.955000,-0.042180,
2025-10-24T06:56:41.498940+00:00,6.960000,-0.031540,
2025-10-24T06:56:41.503940+00:00,6.965000,-0.021660,
2025-10-24T06:56:41.508940+00:00,6.970000,-0.020520,
2025-10-24T06:56:41.513940+00:00,6.975000,-0.031920,
2025-10-24T06:56:41.518940+00:00,6.980000,-0.032300,
2025-10-24T06:56:41.523940+00:00,6.985000,-0.006840,
2025-10-24T06:56:41.528940+00:00,6.990000,0.020520,
2025-10-24T06:56:41.533940+00:00,6.995000,0.030020,
2025-10-24T06:56:41.538940+00:00,7.000000,0.024700,
2025-10-24T06:56:41.543940+00:00,7.005000,0.009880,
2025-10-24T06:56:41.548940+00:00,7.010000,-0.006460,
2025-10-24T06:56:41.553940+00:00,7.015000,-0.006080,
2025-10-24T06:56:41.558940+00:00,7.020000,0.007220,
2025-10-24T06:56:41.563940+00:00,7.025000,0.010260,
2025-10-24T06:56:41.568940+00:00,7.030000,0.003420,
2025-10-24T06:56:41.573940+00:00,7.035000,-0.004940,
2025-10-24T06:56:41.578940+00:00,7.040000,-0.018620,
2025-10-24T06:56:41.583940+00:00,7.045000,-0.033820,
2025-10-24T06:56:41.588940+00:00,7.050000,-0.031920,
2025-10-24T06:56:41.593940+00:00,7.055000,-0.020520,
2025-10-24T06:56:41.598940+00:00,7.060000,-0.014440,
2025-10-24T06:56:41.603940+00:00,7.065000,-0.014440,
2025-10-24T06:56:41.608940+00:00,7.070000,-0.024320,
2025-10-24T06:56:41.613940+00:00,7.075000,-0.041040,
2025-10-24T06:56:41.618940+00:00,7.080000,-0.049400,
2025-10-24T06:56:41.623940+00:00,7.085000,-0.049780,
2025-10-24T06:56:41.628940+00:00,7.090000,-0.049020,
2025-10-24T06:56:41.633940+00:00,7.095000,-0.042560,
2025-10-24T06:56:41.638940+00:00,7.100000,-0.028120,
2025-10-24T06:56:41.643940+00:00,7.105000,-0.025840,
2025-10-24T06:56:41.648940+00:00,7.110000,-0.039140,
2025-10-24T06:56:41.653940+00:00,7.115000,-0.045600,
2025-10-24T06:56:41.658940+00:00,7.120000,-0.036860,
2025-10-24T06:56:41.663940+00:00,7.125000,-0.024700,
2025-10-24T06:56:41.668940+00:00,7.130000,-0.012160,
2025-10-24T06:56:41.673940+00:00,7.135000,-0.000760,
2025-10-24T06:56:41.678940+00:00,7.140000,0.001900,
2025-10-24T06:56:41.683940+00:00,7.145000,-0.007980,
2025-10-24T06:56:41.688940+00:00,7.150000,-0.019760,
2025-10-24T06:56:41.693940+00:00,7.155000,-0.030400,
2025-10-24T06:56:41.698940+00:00,7.160000,-0.033440,
2025-10-24T06:56:41.703940+00:00,7.165000,-0.030780,
2025-10-24T06:56:41.708940+00:00,7.170000,-0.031920,
2025-10-24T06:56:41.713940+00:00,7.175000,-0.047500,
2025-10-24T06:56:41.718940+00:00,7.180000,-0.060040,
2025-10-24T06:56:41.723940+00:00,7.185000,-0.058520,
2025-10-24T06:56:41.728940+00:00,7.190000,-0.051680,
2025-10-24T06:56:41.733940+00:00,7.195000,-0.052060,
2025-10-24T06:56:41.738940+00:00,7.200000,-0.055860,
2025-10-24T06:56:41.743940+00:00,7.205000,-0.060800,
2025-10-24T06:56:41.748940+00:00,7.210000,-0.060800,
2025-10-24T06:56:41.753940+00:00,7.215000,-0.051680,
2025-10-24T06:56:41.758940+00:00,7.220000,-0.039520,
2025-10-24T06:56:41.763940+00:00,7.225000,-0.034960,
2025-10-24T06:56:41.768940+00:00,7.230000,-0.035720,
2025-10-24T06:56:41.773940+00:00,7.235000,-0.037620,
2025-10-24T06:56:41.778940+00:00,7.240000,-0.041800,
2025-10-24T06:56:41.783940+00:00,7.245000,-0.042940,
2025-10-24T06:56:41.788940+00:00,7.250000,-0.034200,
2025-10-24T06:56:41.793940+00:00,7.255000,-0.029260,
2025-10-24T06:56:41.798940+00:00,7.260000,-0.032680,
2025-10-24T06:56:41.803940+00:00,7.265000,-0.036100,
2025-10-24T06:56:41.808940+00:00,7.270000,-0.038000,
2025-10-24T06:56:41.813940+00:00,7.275000,-0.042180,
2025-10-24T06:56:41.818940+00:00,7.280000,-0.043320,
2025-10-24T06:56:41.823940+00:00,7.285000,-0.032300,
2025-10-24T06:56:41.828940+00:00,7.290000,-0.023180,
2025-10-24T06:56:41.833940+00:00,7.295000,-0.020900,
2025-10-24T06:56:41.838940+00:00,7.300000,-0.027740,
2025-10-24T06:56:41.843940+00:00,7.305000,-0.036100,
2025-10-24T06:56:41.848940+00:00,7.310000,-0.040660,
2025-10-24T06:56:41.853940+00:00,7.315000,-0.041420,
2025-10-24T06:56:41.858940+00:00,7.320000,-0.044460,
2025-10-24T06:56:41.863940+00:00,7.325000,-0.047120,
2025-10-24T06:56:41.868940+00:00,7.330000,-0.039900,
2025-10-24T06:56:41.873940+00:00,7.335000,-0.033060,
2025-10-24T06:56:41.878940+00:00,7.340000,-0.030400,
2025-10-24T06:56:41.883940+00:00,7.345000,-0.025840,
2025-10-24T06:56:41.888940+00:00,7.350000,-0.022040,
2025-10-24T06:56:41.893940+00:00,7.355000,-0.027360,
2025-10-24T06:56:41.898940+00:00,7.360000,-0.046360,
2025-10-24T06:56:41.903940+00:00,7.365000,-0.074100,
2025-10-24T06:56:41.908940+00:00,7.370000,-0.092720,
2025-10-24T06:56:41.913940+00:00,7.375000,-0.088540,
2025-10-24T06:56:41.918940+00:00,7.380000,-0.066120,
2025-10-24T06:56:41.923940+00:00,7.385000,-0.050540,
2025-10-24T06:56:41.928940+00:00,7.390000,-0.044840,
2025-10-24T06:56:41.933940+00:00,7.395000,-0.045600,
2025-10-24T06:56:41.938940+00:00,7.400000,-0.045980,
2025-10-24T06:56:41.943940+00:00,7.405000,-0.046740,
2025-10-24T06:56:41.948940+00:00,7.410000,-0.047500,
2025-10-24T06:56:41.953940+00:00,7.415000,-0.050160,
2025-10-24T06:56:41.958940+00:00,7.420000,-0.050160,
2025-10-24T06:56:41.963940+00:00,7.425000,-0.046360,
2025-10-24T06:56:41.968940+00:00,7.430000,-0.052060,
2025-10-24T06:56:41.973940+00:00,7.435000,-0.064220,
2025-10-24T06:56:41.978940+00:00,7.440000,-0.061940,
2025-10-24T06:56:41.983940+00:00,7.445000,-0.039140,
2025-10-24T06:56:41.988940+00:00,7.450000,-0.015960,
2025-10-24T06:56:41.993940+00:00,7.455000,-0.004940,
2025-10-24T06:56:41.998940+00:00,7.460000,-0.005700,
2025-10-24T06:56:42.003940+00:00,7.465000,-0.011020,
2025-10-24T06:56:42.008940+00:00,7.470000,-0.020140,
2025-10-24T06:56:42.013940+00:00,7.475000,-0.025080,
2025-10-24T06:56:42.018940+00:00,7.480000,-0.025840,
2025-10-24T06:56:42.023940+00:00,7.485000,-0.021660,
2025-10-24T06:56:42.028940+00:00,7.490000,-0.019000,
2025-10-24T06:56:42.033940+00:00,7.495000,-0.023180,
2025-10-24T06:56:42.038940+00:00,7.500000,-0.033440,
2025-10-24T06:56:42.043940+00:00,7.505000,-0.039520,
2025-10-24T06:56:42.048940+00:00,7.510000,-0.036100,
2025-10-24T06:56:42.053940+00:00,7.515000,-0.034200,
2025-10-24T06:56:42.058940+00:00,7.520000,-0.031540,
2025-10-24T06:56:42.063940+00:00,7.525000,-0.026600,
2025-10-24T06:56:42.068940+00:00,7.530000,-0.022420,
2025-10-24T06:56:42.073940+00:00,7.535000,-0.022420,
2025-10-24T06:56:42.078940+00:00,7.540000,-0.018620,
2025-10-24T06:56:42.083940+00:00,7.545000,-0.014060,
2025-10-24T06:56:42.088940+00:00,7.550000,-0.017480,
2025-10-24T06:56:42.093940+00:00,7.555000,-0.023560,
2025-10-24T06:56:42.098940+00:00,7.560000,-0.021660,
2025-10-24T06:56:42.103940+00:00,7.565000,-0.015960,
2025-10-24T06:56:42.108940+00:00,7.570000,-0.013300,
2025-10-24T06:56:42.113940+00:00,7.575000,-0.008360,
2025-10-24T06:56:42.118940+00:00,7.580000,-0.003420,
2025-10-24T06:56:42.123940+00:00,7.585000,-0.007220,
2025-10-24T06:56:42.128940+00:00,7.590000,-0.016340,
2025-10-24T06:56:42.133940+00:00,7.595000,-0.025080,
2025-10-24T06:56:42.138940+00:00,7.600000,-0.031540,
2025-10-24T06:56:42.143940+00:00,7.605000,-0.026220,
2025-10-24T06:56:42.148940+00:00,7.610000,-0.010640,
2025-10-24T06:56:42.153940+00:00,7.615000,-0.005700,
2025-10-24T06:56:42.158940+00:00,7.620000,-0.019760,
2025-10-24T06:56:42.163940+00:00,7.625000,-0.032300,
2025-10-24T06:56:42.168940+00:00,7.630000,-0.027740,
2025-10-24T06:56:42.173940+00:00,7.635000,-0.032300,
2025-10-24T06:56:42.178940+00:00,7.640000,-0.075620,
2025-10-24T06:56:42.183940+00:00,7.645000,-0.152760,
2025-10-24T06:56:42.188940+00:00,7.650000,-0.203680,
2025-10-24T06:56:42.193940+00:00,7.655000,-0.173660,
2025-10-24T06:56:42.198940+00:00,7.660000,-0.078280,
2025-10-24T06:56:42.203940+00:00,7.665000,0.014060,
2025-10-24T06:56:42.208940+00:00,7.670000,0.061940,
2025-10-24T06:56:42.213940+00:00,7.675000,0.064220,
2025-10-24T06:56:42.218940+00:00,7.680000,0.033060,
2025-10-24T06:56:42.223940+00:00,7.685000,-0.016720,
2025-10-24T06:56:42.228940+00:00,7.690000,-0.058900,
2025-10-24T06:56:42.233940+00:00,7.695000,-0.085880,
2025-10-24T06:56:42.238940+00:00,7.700000,-0.107540,
2025-10-24T06:56:42.243940+00:00,7.705000,-0.120080,
2025-10-24T06:56:42.248940+00:00,7.710000,-0.120840,
2025-10-24T06:56:42.253940+00:00,7.715000,-0.122740,
2025-10-24T06:56:42.258940+00:00,7.720000,-0.120460,
2025-10-24T06:56:42.263940+00:00,7.725000,-0.104880,
2025-10-24T06:56:42.268940+00:00,7.730000,-0.085120,
2025-10-24T06:56:42.273940+00:00,7.735000,-0.087020,
2025-10-24T06:56:42.278940+00:00,7.740000,-0.102980,
2025-10-24T06:56:42.283940+00:00,7.745000,-0.109060,
2025-10-24T06:56:42.288940+00:00,7.750000,-0.103360,
2025-10-24T06:56:42.293940+00:00,7.755000,-0.083220,
2025-10-24T06:56:42.298940+00:00,7.760000,-0.050160,
2025-10-24T06:56:42.303940+00:00,7.765000,-0.032300,
2025-10-24T06:56:42.308940+00:00,7.770000,-0.039900,
2025-10-24T06:56:42.313940+00:00,7.775000,-0.053580,
2025-10-24T06:56:42.318940+00:00,7.780000,-0.056240,
2025-10-24T06:56:42.323940+00:00,7.785000,-0.050160,
2025-10-24T06:56:42.328940+00:00,7.790000,-0.031920,
2025-10-24T06:56:42.333940+00:00,7.795000,-0.007980,
2025-10-24T06:56:42.338940+00:00,7.800000,0.003420,
2025-10-24T06:56:42.343940+00:00,7.805000,0.006840,
2025-10-24T06:56:42.348940+00:00,7.810000,0.012920,
2025-10-24T06:56:42.353940+00:00,7.815000,0.014060,
2025-10-24T06:56:42.358940+00:00,7.820000,0.012160,
2025-10-24T06:56:42.363940+00:00,7.825000,0.013300,
2025-10-24T06:56:42.368940+00:00,7.830000,0.010260,
2025-10-24T06:56:42.373940+00:00,7.835000,0.012540,
2025-10-24T06:56:42.378940+00:00,7.840000,0.030400,
2025-10-24T06:56:42.383940+00:00,7.845000,0.017100,
2025-10-24T06:56:42.388940+00:00,7.850000,-0.027360,
2025-10-24T06:56:42.393940+00:00,7.855000,0.022040,
2025-10-24T06:56:42.398940+00:00,7.860000,0.251560,
2025-10-24T06:56:42.403940+00:00,7.865000,0.549100,
2025-10-24T06:56:42.408940+00:00,7.870000,0.704140,
2025-10-24T06:56:42.413940+00:00,7.875000,0.623200,
2025-10-24T06:56:42.418940+00:00,7.880000,0.410400,
2025-10-24T06:56:42.423940+00:00,7.885000,0.224200,
2025-10-24T06:56:42.428940+00:00,7.890000,0.086640,
2025-10-24T06:56:42.433940+00:00,7.895000,-0.071440,
2025-10-24T06:56:42.438940+00:00,7.900000,-0.234460,
2025-10-24T06:56:42.443940+00:00,7.905000,-0.326420,
2025-10-24T06:56:42.448940+00:00,7.910000,-0.352260,
2025-10-24T06:56:42.453940+00:00,7.915000,-0.354920,
2025-10-24T06:56:42.458940+00:00,7.920000,-0.321100,
2025-10-24T06:56:42.463940+00:00,7.925000,-0.216600,
2025-10-24T06:56:42.468940+00:00,7.930000,-0.100320,
2025-10-24T06:56:42.473940+00:00,7.935000,-0.074860,
2025-10-24T06:56:42.478940+00:00,7.940000,-0.163020,
2025-10-24T06:56:42.483940+00:00,7.945000,-0.269040,
2025-10-24T06:56:42.488940+00:00,7.950000,-0.307800,
2025-10-24T06:56:42.493940+00:00,7.955000,-0.281580,
2025-10-24T06:56:42.498940+00:00,7.960000,-0.243200,
2025-10-24T06:56:42.503940+00:00,7.965000,-0.209380,
2025-10-24T06:56:42.508940+00:00,7.970000,-0.172140,
2025-10-24T06:56:42.513940+00:00,7.975000,-0.133760,
2025-10-24T06:56:42.518940+00:00,7.980000,-0.127680,
2025-10-24T06:56:42.523940+00:00,7.985000,-0.152000,
2025-10-24T06:56:42.528940+00:00,7.990000,-0.168720,
2025-10-24T06:56:42.533940+00:00,7.995000,-0.161120,
2025-10-24T06:56:42.538940+00:00,8.000000,-0.152380,
2025-10-24T06:56:42.543940+00:00,8.005000,-0.166820,
2025-10-24T06:56:42.548940+00:00,8.010000,-0.202160,
2025-10-24T06:56:42.553940+00:00,8.015000,-0.212800,
2025-10-24T06:56:42.558940+00:00,8.020000,-0.180880,
2025-10-24T06:56:42.563940+00:00,8.025000,-0.163780,
2025-10-24T06:56:42.568940+00:00,8.030000,-0.201780,
2025-10-24T06:56:42.573940+00:00,8.035000,-0.261060,
2025-10-24T06:56:42.578940+00:00,8.040000,-0.299060,
2025-10-24T06:56:42.583940+00:00,8.045000,-0.321100,
2025-10-24T06:56:42.588940+00:00,8.050000,-0.335160,
2025-10-24T06:56:42.593940+00:00,8.055000,-0.327940,
2025-10-24T06:56:42.598940+00:00,8.060000,-0.291840,
2025-10-24T06:56:42.603940+00:00,8.065000,-0.248520,
2025-10-24T06:56:42.608940+00:00,8.070000,-0.223060,
2025-10-24T06:56:42.613940+00:00,8.075000,-0.190000,
2025-10-24T06:56:42.618940+00:00,8.080000,-0.126920,
2025-10-24T06:56:42.623940+00:00,8.085000,-0.081320,
2025-10-24T06:56:42.628940+00:00,8.090000,-0.117040,
2025-10-24T06:56:42.633940+00:00,8.095000,-0.215080,
2025-10-24T06:56:42.638940+00:00,8.100000,-0.337820,
2025-10-24T06:56:42.643940+00:00,8.105000,-0.445360,
2025-10-24T06:56:42.648940+00:00,8.110000,-0.498940,
2025-10-24T06:56:42.653940+00:00,8.115000,-0.491720,
2025-10-24T06:56:42.658940+00:00,8.120000,-0.438900,
2025-10-24T06:56:42.663940+00:00,8.125000,-0.345800,
2025-10-24T06:56:42.668940+00:00,8.130000,-0.245480,
2025-10-24T06:56:42.673940+00:00,8.135000,-0.180500,
2025-10-24T06:56:42.678940+00:00,8.140000,-0.149720,
2025-10-24T06:56:42.683940+00:00,8.145000,-0.130340,
2025-10-24T06:56:42.688940+00:00,8.150000,-0.112860,
2025-10-24T06:56:42.693940+00:00,8.155000,-0.105640,
2025-10-24T06:56:42.698940+00:00,8.160000,-0.110960,
2025-10-24T06:56:42.703940+00:00,8.165000,-0.121600,
2025-10-24T06:56:42.708940+00:00,8.170000,-0.128060,
2025-10-24T06:56:42.713940+00:00,8.175000,-0.135660,
2025-10-24T06:56:42.718940+00:00,8.180000,-0.144020,
2025-10-24T06:56:42.723940+00:00,8.185000,-0.131480,
2025-10-24T06:56:42.728940+00:00,8.190000,-0.104880,
2025-10-24T06:56:42.733940+00:00,8.195000,-0.100320,
2025-10-24T06:56:42.738940+00:00,8.200000,-0.115520,
2025-10-24T06:56:42.743940+00:00,8.205000,-0.115900,
2025-10-24T06:56:42.748940+00:00,8.210000,-0.091580,
2025-10-24T06:56:42.753940+00:00,8.215000,-0.076760,
2025-10-24T06:56:42.758940+00:00,8.220000,-0.081700,
2025-10-24T06:56:42.763940+00:00,8.225000,-0.097660,
2025-10-24T06:56:42.768940+00:00,8.230000,-0.107160,
2025-10-24T06:56:42.773940+00:00,8.235000,-0.103740,
2025-10-24T06:56:42.778940+00:00,8.240000,-0.093860,
2025-10-24T06:56:42.783940+00:00,8.245000,-0.091200,
2025-10-24T06:56:42.788940+00:00,8.250000,-0.095000,
2025-10-24T06:56:42.793940+00:00,8.255000,-0.106780,
2025-10-24T06:56:42.798940+00:00,8.260000,-0.115520,
2025-10-24T06:56:42.803940+00:00,8.265000,-0.111340,
2025-10-24T06:56:42.808940+00:00,8.270000,-0.095380,
2025-10-24T06:56:42.813940+00:00,8.275000,-0.095380,
2025-10-24T06:56:42.818940+00:00,8.280000,-0.130340,
2025-10-24T06:56:42.823940+00:00,8.285000,-0.181640,
2025-10-24T06:56:42.828940+00:00,8.290000,-0.215460,
2025-10-24T06:56:42.833940+00:00,8.295000,-0.206340,
2025-10-24T06:56:42.838940+00:00,8.300000,-0.158460,
2025-10-24T06:56:42.843940+00:00,8.305000,-0.117040,
2025-10-24T06:56:42.848940+00:00,8.310000,-0.104880,
2025-10-24T06:56:42.853940+00:00,8.315000,-0.107540,
2025-10-24T06:56:42.858940+00:00,8.320000,-0.106020,
2025-10-24T06:56:42.863940+00:00,8.325000,-0.106400,
2025-10-24T06:56:42.868940+00:00,8.330000,-0.109060,
2025-10-24T06:56:42.873940+00:00,8.335000,-0.104880,
2025-10-24T06:56:42.878940+00:00,8.340000,-0.094620,
2025-10-24T06:56:42.883940+00:00,8.345000,-0.083980,
2025-10-24T06:56:42.888940+00:00,8.350000,-0.079800,
2025-10-24T06:56:42.893940+00:00,8.355000,-0.092340,
2025-10-24T06:56:42.898940+00:00,8.360000,-0.120460,
2025-10-24T06:56:42.903940+00:00,8.365000,-0.141740,
2025-10-24T06:56:42.908940+00:00,8.370000,-0.151240,
2025-10-24T06:56:42.913940+00:00,8.375000,-0.161880,
2025-10-24T06:56:42.918940+00:00,8.380000,-0.177840,
2025-10-24T06:56:42.923940+00:00,8.385000,-0.182020,
2025-10-24T06:56:42.928940+00:00,8.390000,-0.174800,
2025-10-24T06:56:42.933940+00:00,8.395000,-0.169480,
2025-10-24T06:56:42.938940+00:00,8.400000,-0.169100,
2025-10-24T06:56:42.943940+00:00,8.405000,-0.168720,
2025-10-24T06:56:42.948940+00:00,8.410000,-0.159980,
2025-10-24T06:56:42.953940+00:00,8.415000,-0.142500,
2025-10-24T06:56:42.958940+00:00,8.420000,-0.130340,
2025-10-24T06:56:42.963940+00:00,8.425000,-0.129960,
2025-10-24T06:56:42.968940+00:00,8.430000,-0.120080,
2025-10-24T06:56:42.973940+00:00,8.435000,-0.101080,
2025-10-24T06:56:42.978940+00:00,8.440000,-0.091580,
2025-10-24T06:56:42.983940+00:00,8.445000,-0.092340,
2025-10-24T06:56:42.988940+00:00,8.450000,-0.086260,
2025-10-24T06:56:42.993940+00:00,8.455000,-0.082080,
2025-10-24T06:56:42.998940+00:00,8.460000,-0.096520,
2025-10-24T06:56:43.003940+00:00,8.465000,-0.113620,
2025-10-24T06:56:43.008940+00:00,8.470000,-0.125020,
2025-10-24T06:56:43.013940+00:00,8.475000,-0.143260,
2025-10-24T06:56:43.018940+00:00,8.480000,-0.166440,
2025-10-24T06:56:43.023940+00:00,8.485000,-0.176320,
2025-10-24T06:56:43.028940+00:00,8.490000,-0.176700,
2025-10-24T06:56:43.033940+00:00,8.495000,-0.174800,
2025-10-24T06:56:43.038940+00:00,8.500000,-0.169480,
2025-10-24T06:56:43.043940+00:00,8.505000,-0.171380,
2025-10-24T06:56:43.048940+00:00,8.510000,-0.179360,
2025-10-24T06:56:43.053940+00:00,8.515000,-0.177460,
2025-10-24T06:56:43.058940+00:00,8.520000,-0.165300,
2025-10-24T06:56:43.063940+00:00,8.525000,-0.168340,
2025-10-24T06:56:43.068940+00:00,8.530000,-0.195320,
2025-10-24T06:56:43.073940+00:00,8.535000,-0.246240,
2025-10-24T06:56:43.078940+00:00,8.540000,-0.299440,
2025-10-24T06:56:43.083940+00:00,8.545000,-0.313880,
2025-10-24T06:56:43.088940+00:00,8.550000,-0.275500,
2025-10-24T06:56:43.093940+00:00,8.555000,-0.211660,
2025-10-24T06:56:43.098940+00:00,8.560000,-0.152000,
2025-10-24T06:56:43.103940+00:00,8.565000,-0.108300,
2025-10-24T06:56:43.108940+00:00,8.570000,-0.096900,
2025-10-24T06:56:43.113940+00:00,8.575000,-0.110960,
2025-10-24T06:56:43.118940+00:00,8.580000,-0.118940,
2025-10-24T06:56:43.123940+00:00,8.585000,-0.109440,
2025-10-24T06:56:43.128940+00:00,8.590000,-0.096520,
2025-10-24T06:56:43.133940+00:00,8.595000,-0.085500,
2025-10-24T06:56:43.138940+00:00,8.600000,-0.080940,
2025-10-24T06:56:43.143940+00:00,8.605000,-0.086260,
2025-10-24T06:56:43.148940+00:00,8.610000,-0.091200,
2025-10-24T06:56:43.153940+00:00,8.615000,-0.082080,
2025-10-24T06:56:43.158940+00:00,8.620000,-0.068020,
2025-10-24T06:56:43.163940+00:00,8.625000,-0.060800,
2025-10-24T06:56:43.168940+00:00,8.630000,-0.060420,
2025-10-24T06:56:43.173940+00:00,8.635000,-0.064220,
2025-10-24T06:56:43.178940+00:00,8.640000,-0.072960,
2025-10-24T06:56:43.183940+00:00,8.645000,-0.079800,
2025-10-24T06:56:43.188940+00:00,8.650000,-0.076380,
2025-10-24T06:56:43.193940+00:00,8.655000,-0.066880,
2025-10-24T06:56:43.198940+00:00,8.660000,-0.059660,
2025-10-24T06:56:43.203940+00:00,8.665000,-0.053960,
2025-10-24T06:56:43.208940+00:00,8.670000,-0.047500,
2025-10-24T06:56:43.213940+00:00,8.675000,-0.039900,
2025-10-24T06:56:43.218940+00:00,8.680000,-0.032680,
2025-10-24T06:56:43.223940+00:00,8.685000,-0.029640,
2025-10-24T06:56:43.228940+00:00,8.690000,-0.033820,
2025-10-24T06:56:43.233940+00:00,8.695000,-0.042180,
2025-10-24T06:56:43.238940+00:00,8.700000,-0.045980,
2025-10-24T06:56:43.243940+00:00,8.705000,-0.048260,
2025-10-24T06:56:43.248940+00:00,8.710000,-0.060420,
2025-10-24T06:56:43.253940+00:00,8.715000,-0.076000,
2025-10-24T06:56:43.258940+00:00,8.720000,-0.084740,
2025-10-24T06:56:43.263940+00:00,8.725000,-0.083980,
2025-10-24T06:56:43.268940+00:00,8.730000,-0.076760,
2025-10-24T06:56:43.273940+00:00,8.735000,-0.063840,
2025-10-24T06:56:43.278940+00:00,8.740000,-0.055480,
2025-10-24T06:56:43.283940+00:00,8.745000,-0.054720,
2025-10-24T06:56:43.288940+00:00,8.750000,-0.060800,
2025-10-24T06:56:43.293940+00:00,8.755000,-0.068020,
2025-10-24T06:56:43.298940+00:00,8.760000,-0.067640,
2025-10-24T06:56:43.303940+00:00,8.765000,-0.053960,
2025-10-24T06:56:43.308940+00:00,8.770000,-0.041800,
2025-10-24T06:56:43.313940+00:00,8.775000,-0.045600,
2025-10-24T06:56:43.318940+00:00,8.780000,-0.056240,
2025-10-24T06:56:43.323940+00:00,8.785000,-0.060420,
2025-10-24T06:56:43.328940+00:00,8.790000,-0.058900,
2025-10-24T06:56:43.333940+00:00,8.795000,-0.055100,
2025-10-24T06:56:43.338940+00:00,8.800000,-0.057760,
2025-10-24T06:56:43.343940+00:00,8.805000,-0.066120,
2025-10-24T06:56:43.348940+00:00,8.810000,-0.068400,
2025-10-24T06:56:43.353940+00:00,8.815000,-0.058520,
2025-10-24T06:56:43.358940+00:00,8.820000,-0.044460,
2025-10-24T06:56:43.363940+00:00,8.825000,-0.043320,
2025-10-24T06:56:43.368940+00:00,8.830000,-0.049400,
2025-10-24T06:56:43.373940+00:00,8.835000,-0.053580,
2025-10-24T06:56:43.378940+00:00,8.840000,-0.055100,
2025-10-24T06:56:43.383940+00:00,8.845000,-0.056240,
2025-10-24T06:56:43.388940+00:00,8.850000,-0.060800,
2025-10-24T06:56:43.393940+00:00,8.855000,-0.063460,
2025-10-24T06:56:43.398940+00:00,8.860000,-0.061560,
2025-10-24T06:56:43.403940+00:00,8.865000,-0.061560,
2025-10-24T06:56:43.408940+00:00,8.870000,-0.061180,
2025-10-24T06:56:43.413940+00:00,8.875000,-0.062700,
2025-10-24T06:56:43.418940+00:00,8.880000,-0.060040,
2025-10-24T06:56:43.423940+00:00,8.885000,-0.054340,
2025-10-24T06:56:43.428940+00:00,8.890000,-0.052440,
2025-10-24T06:56:43.433940+00:00,8.895000,-0.043320,
2025-10-24T06:56:43.438940+00:00,8.900000,-0.020520,
2025-10-24T06:56:43.443940+00:00,8.905000,-0.000380,
2025-10-24T06:56:43.448940+00:00,8.910000,-0.001900,
2025-10-24T06:56:43.453940+00:00,8.915000,-0.015580,
2025-10-24T06:56:43.458940+00:00,8.920000,-0.020520,
2025-10-24T06:56:43.463940+00:00,8.925000,-0.009120,
2025-10-24T06:56:43.468940+00:00,8.930000,0.010640,
2025-10-24T06:56:43.473940+00:00,8.935000,0.017100,
2025-10-24T06:56:43.478940+00:00,8.940000,0.022040,
2025-10-24T06:56:43.483940+00:00,8.945000,0.039140,
2025-10-24T06:56:43.488940+00:00,8.950000,0.047500,
2025-10-24T06:56:43.493940+00:00,8.955000,0.023940,
2025-10-24T06:56:43.498940+00:00,8.960000,-0.012540,
2025-10-24T06:56:43.503940+00:00,8.965000,-0.029640,
2025-10-24T06:56:43.508940+00:00,8.970000,-0.025840,
2025-10-24T06:56:43.513940+00:00,8.975000,-0.009880,
2025-10-24T06:56:43.518940+00:00,8.980000,0.012160,
2025-10-24T06:56:43.523940+00:00,8.985000,0.038380,
2025-10-24T06:56:43.528940+00:00,8.990000,0.055480,
2025-10-24T06:56:43.533940+00:00,8.995000,0.055480,
2025-10-24T06:56:43.538940+00:00,9.000000,0.047500,
2025-10-24T06:56:43.543940+00:00,9.005000,0.040660,
2025-10-24T06:56:43.548940+00:00,9.010000,0.019380,
2025-10-24T06:56:43.553940+00:00,9.015000,-0.014060,
2025-10-24T06:56:43.558940+00:00,9.020000,-0.031160,
2025-10-24T06:56:43.563940+00:00,9.025000,-0.026220,
2025-10-24T06:56:43.568940+00:00,9.030000,-0.022800,
2025-10-24T06:56:43.573940+00:00,9.035000,-0.025840,
2025-10-24T06:56:43.578940+00:00,9.040000,-0.024320,
2025-10-24T06:56:43.583940+00:00,9.045000,-0.017100,
2025-10-24T06:56:43.588940+00:00,9.050000,-0.020520,
2025-10-24T06:56:43.593940+00:00,9.055000,-0.034960,
2025-10-24T06:56:43.598940+00:00,9.060000,-0.034580,
2025-10-24T06:56:43.603940+00:00,9.065000,-0.012920,
2025-10-24T06:56:43.608940+00:00,9.070000,-0.010260,
2025-10-24T06:56:43.613940+00:00,9.075000,-0.039140,
2025-10-24T06:56:43.618940+00:00,9.080000,-0.058520,
2025-10-24T06:56:43.623940+00:00,9.085000,-0.038380,
2025-10-24T06:56:43.628940+00:00,9.090000,-0.007980,
2025-10-24T06:56:43.633940+00:00,9.095000,-0.001900,
2025-10-24T06:56:43.638940+00:00,9.100000,-0.012920,
2025-10-24T06:56:43.643940+00:00,9.105000,-0.020140,
2025-10-24T06:56:43.648940+00:00,9.110000,-0.026600,
2025-10-24T06:56:43.653940+00:00,9.115000,-0.034960,
2025-10-24T06:56:43.658940+00:00,9.120000,-0.039520,
2025-10-24T06:56:43.663940+00:00,9.125000,-0.045220,
2025-10-24T06:56:43.668940+00:00,9.130000,-0.056620,
2025-10-24T06:56:43.673940+00:00,9.135000,-0.056620,
2025-10-24T06:56:43.678940+00:00,9.140000,-0.043320,
2025-10-24T06:56:43.683940+00:00,9.145000,-0.029640,
2025-10-24T06:56:43.688940+00:00,9.150000,-0.026600,
2025-10-24T06:56:43.693940+00:00,9.155000,-0.025460,
2025-10-24T06:56:43.698940+00:00,9.160000,-0.001520,
2025-10-24T06:56:43.703940+00:00,9.165000,0.039140,
2025-10-24T06:56:43.708940+00:00,9.170000,0.057760,
2025-10-24T06:56:43.713940+00:00,9.175000,0.045980,
2025-10-24T06:56:43.718940+00:00,9.180000,0.037620,
2025-10-24T06:56:43.723940+00:00,9.185000,0.044080,
2025-10-24T06:56:43.728940+00:00,9.190000,0.027360,
2025-10-24T06:56:43.733940+00:00,9.195000,-0.023560,
2025-10-24T06:56:43.738940+00:00,9.200000,-0.064220,
2025-10-24T06:56:43.743940+00:00,9.205000,-0.085500,
2025-10-24T06:56:43.748940+00:00,9.210000,-0.115900,
2025-10-24T06:56:43.753940+00:00,9.215000,-0.093480,
2025-10-24T06:56:43.758940+00:00,9.220000,0.017480,
2025-10-24T06:56:43.763940+00:00,9.225000,0.064980,
2025-10-24T06:56:43.768940+00:00,9.230000,-0.101080,
2025-10-24T06:56:43.773940+00:00,9.235000,-0.442320,
2025-10-24T06:56:43.778940+00:00,9.240000,-0.794960,
2025-10-24T06:56:43.783940+00:00,9.245000,-0.994840,
2025-10-24T06:56:43.788940+00:00,9.250000,-0.984200,
2025-10-24T06:56:43.793940+00:00,9.255000,-0.850820,
2025-10-24T06:56:43.798940+00:00,9.260000,-0.688940,
2025-10-24T06:56:43.803940+00:00,9.265000,-0.532000,
2025-10-24T06:56:43.808940+00:00,9.270000,-0.393300,
2025-10-24T06:56:43.813940+00:00,9.275000,-0.244340,
2025-10-24T06:56:43.818940+00:00,9.280000,-0.055860,
2025-10-24T06:56:43.823940+00:00,9.285000,0.084360,
2025-10-24T06:56:43.828940+00:00,9.290000,0.126160,
2025-10-24T06:56:43.833940+00:00,9.295000,0.146680,
2025-10-24T06:56:43.838940+00:00,9.300000,0.170620,
2025-10-24T06:56:43.843940+00:00,9.305000,0.161120,
2025-10-24T06:56:43.848940+00:00,9.310000,0.118940,
2025-10-24T06:56:43.853940+00:00,9.315000,0.041800,
2025-10-24T06:56:43.858940+00:00,9.320000,-0.017100,
2025-10-24T06:56:43.863940+00:00,9.325000,0.050540,
2025-10-24T06:56:43.868940+00:00,9.330000,0.135280,
2025-10-24T06:56:43.873940+00:00,9.335000,-0.190380,
2025-10-24T06:56:43.878940+00:00,9.340000,-1.194720,
2025-10-24T06:56:43.883940+00:00,9.345000,-2.411860,
2025-10-24T06:56:43.888940+00:00,9.350000,-2.919160,
2025-10-24T06:56:43.893940+00:00,9.355000,-2.324840,
2025-10-24T06:56:43.898940+00:00,9.360000,-1.143040,
2025-10-24T06:56:43.903940+00:00,9.365000,-0.166060,
2025-10-24T06:56:43.908940+00:00,9.370000,0.178600,
2025-10-24T06:56:43.913940+00:00,9.375000,0.058140,
2025-10-24T06:56:43.918940+00:00,9.380000,0.091580,
2025-10-24T06:56:43.923940+00:00,9.385000,0.660820,
2025-10-24T06:56:43.928940+00:00,9.390000,1.390800,
2025-10-24T06:56:43.933940+00:00,9.395000,1.596000,
2025-10-24T06:56:43.938940+00:00,9.400000,1.139240,
2025-10-24T06:56:43.943940+00:00,9.405000,0.524020,
2025-10-24T06:56:43.948940+00:00,9.410000,0.193420,
2025-10-24T06:56:43.953940+00:00,9.415000,0.078280,
2025-10-24T06:56:43.958940+00:00,9.420000,-0.064600,
2025-10-24T06:56:43.963940+00:00,9.425000,-0.178980,
2025-10-24T06:56:43.968940+00:00,9.430000,-0.130340,
2025-10-24T06:56:43.973940+00:00,9.435000,-0.034960,
2025-10-24T06:56:43.978940+00:00,9.440000,0.002660,
2025-10-24T06:56:43.983940+00:00,9.445000,0.058520,
2025-10-24T06:56:43.988940+00:00,9.450000,0.158460,
2025-10-24T06:56:43.993940+00:00,9.455000,0.218500,
2025-10-24T06:56:43.998940+00:00,9.460000,0.214700,
2025-10-24T06:56:44.003940+00:00,9.465000,0.204820,
2025-10-24T06:56:44.008940+00:00,9.470000,0.199880,
2025-10-24T06:56:44.013940+00:00,9.475000,0.192660,
2025-10-24T06:56:44.018940+00:00,9.480000,0.186580,
2025-10-24T06:56:44.023940+00:00,9.485000,0.165680,
2025-10-24T06:56:44.028940+00:00,9.490000,0.124640,
2025-10-24T06:56:44.033940+00:00,9.495000,0.098040,
2025-10-24T06:56:44.038940+00:00,9.500000,0.099940,
2025-10-24T06:56:44.043940+00:00,9.505000,0.102600,
2025-10-24T06:56:44.048940+00:00,9.510000,0.085120,
2025-10-24T06:56:44.053940+00:00,9.515000,0.066880,
2025-10-24T06:56:44.058940+00:00,9.520000,0.051680,
2025-10-24T06:56:44.063940+00:00,9.525000,0.010260,
2025-10-24T06:56:44.068940+00:00,9.530000,-0.061940,
2025-10-24T06:56:44.073940+00:00,9.535000,-0.105640,
2025-10-24T06:56:44.078940+00:00,9.540000,-0.084740,
2025-10-24T06:56:44.083940+00:00,9.545000,-0.039900,
2025-10-24T06:56:44.088940+00:00,9.550000,-0.015960,
2025-10-24T06:56:44.093940+00:00,9.555000,-0.009880,
2025-10-24T06:56:44.098940+00:00,9.560000,0.001140,
2025-10-24T06:56:44.103940+00:00,9.565000,0.026600,
2025-10-24T06:56:44.108940+00:00,9.570000,0.064980,
2025-10-24T06:56:44.113940+00:00,9.575000,0.102600,
2025-10-24T06:56:44.118940+00:00,9.580000,0.101080,
2025-10-24T06:56:44.123940+00:00,9.585000,0.020900,
2025-10-24T06:56:44.128940+00:00,9.590000,-0.066500,
2025-10-24T06:56:44.133940+00:00,9.595000,0.029260,
2025-10-24T06:56:44.138940+00:00,9.600000,0.332880,
2025-10-24T06:56:44.143940+00:00,9.605000,0.478800,
2025-10-24T06:56:44.148940+00:00,9.610000,0.091200,
2025-10-24T06:56:44.153940+00:00,9.615000,-0.656260,
2025-10-24T06:56:44.158940+00:00,9.620000,-1.180660,
2025-10-24T06:56:44.163940+00:00,9.625000,-1.150260,
2025-10-24T06:56:44.168940+00:00,9.630000,-0.754680,
2025-10-24T06:56:44.173940+00:00,9.635000,-0.375060,
2025-10-24T06:56:44.178940+00:00,9.640000,-0.161880,
2025-10-24T06:56:44.183940+00:00,9.645000,-0.031920,
2025-10-24T06:56:44.188940+00:00,9.650000,0.069160,
2025-10-24T06:56:44.193940+00:00,9.655000,0.112860,
2025-10-24T06:56:44.198940+00:00,9.660000,0.130720,
2025-10-24T06:56:44.203940+00:00,9.665000,0.169480,
2025-10-24T06:56:44.208940+00:00,9.670000,0.195320,
2025-10-24T06:56:44.213940+00:00,9.675000,0.186580,
2025-10-24T06:56:44.218940+00:00,9.680000,0.175940,
2025-10-24T06:56:44.223940+00:00,9.685000,0.167580,
2025-10-24T06:56:44.228940+00:00,9.690000,0.168720,
2025-10-24T06:56:44.233940+00:00,9.695000,0.179740,
2025-10-24T06:56:44.238940+00:00,9.700000,0.153900,
2025-10-24T06:56:44.243940+00:00,9.705000,0.054340,
2025-10-24T06:56:44.248940+00:00,9.710000,-0.068020,
2025-10-24T06:56:44.253940+00:00,9.715000,-0.145920,
2025-10-24T06:56:44.258940+00:00,9.720000,-0.166820,
2025-10-24T06:56:44.263940+00:00,9.725000,-0.147820,
2025-10-24T06:56:44.268940+00:00,9.730000,-0.118560,
2025-10-24T06:56:44.273940+00:00,9.735000,-0.099560,
2025-10-24T06:56:44.278940+00:00,9.740000,-0.079800,
2025-10-24T06:56:44.283940+00:00,9.745000,-0.045980,
2025-10-24T06:56:44.288940+00:00,9.750000,-0.011780,
2025-10-24T06:56:44.293940+00:00,9.755000,0.002660,
2025-10-24T06:56:44.298940+00:00,9.760000,0.003420,
2025-10-24T06:56:44.303940+00:00,9.765000,0.000380,
2025-10-24T06:56:44.308940+00:00,9.770000,0.001900,
2025-10-24T06:56:44.313940+00:00,9.775000,-0.000380,
2025-10-24T06:56:44.318940+00:00,9.780000,-0.010640,
2025-10-24T06:56:44.323940+00:00,9.785000,-0.004940,
2025-10-24T06:56:44.328940+00:00,9.790000,0.017480,
2025-10-24T06:56:44.333940+00:00,9.795000,0.029640,
2025-10-24T06:56:44.338940+00:00,9.800000,0.053960,
2025-10-24T06:56:44.343940+00:00,9.805000,0.109820,
2025-10-24T06:56:44.348940+00:00,9.810000,0.164540,
2025-10-24T06:56:44.353940+00:00,9.815000,0.198740,
2025-10-24T06:56:44.358940+00:00,9.820000,0.185440,
2025-10-24T06:56:44.363940+00:00,9.825000,0.124640,
2025-10-24T06:56:44.368940+00:00,9.830000,0.155420,
2025-10-24T06:56:44.373940+00:00,9.835000,0.377720,
2025-10-24T06:56:44.378940+00:00,9.840000,0.624340,
2025-10-24T06:56:44.383940+00:00,9.845000,0.644860,
2025-10-24T06:56:44.388940+00:00,9.850000,0.424460,
2025-10-24T06:56:44.393940+00:00,9.855000,0.188480,
2025-10-24T06:56:44.398940+00:00,9.860000,0.110200,
2025-10-24T06:56:44.403940+00:00,9.865000,0.136420,
2025-10-24T06:56:44.408940+00:00,9.870000,0.128060,
2025-10-24T06:56:44.413940+00:00,9.875000,0.106780,
2025-10-24T06:56:44.418940+00:00,9.880000,0.150480,
2025-10-24T06:56:44.423940+00:00,9.885000,0.184680,
2025-10-24T06:56:44.428940+00:00,9.890000,0.166440,
2025-10-24T06:56:44.433940+00:00,9.895000,0.162260,
2025-10-24T06:56:44.438940+00:00,9.900000,0.177460,
2025-10-24T06:56:44.443940+00:00,9.905000,0.148580,
2025-10-24T06:56:44.448940+00:00,9.910000,0.074480,
2025-10-24T06:56:44.453940+00:00,9.915000,0.009880,
2025-10-24T06:56:44.458940+00:00,9.920000,-0.036480,
2025-10-24T06:56:44.463940+00:00,9.925000,-0.104880,
2025-10-24T06:56:44.468940+00:00,9.930000,-0.156180,
2025-10-24T06:56:44.473940+00:00,9.935000,-0.087780,
2025-10-24T06:56:44.478940+00:00,9.940000,0.085880,
2025-10-24T06:56:44.483940+00:00,9.945000,0.190380,
2025-10-24T06:56:44.488940+00:00,9.950000,0.106780,
2025-10-24T06:56:44.493940+00:00,9.955000,-0.082080,
2025-10-24T06:56:44.498940+00:00,9.960000,-0.202540,
2025-10-24T06:56:44.503940+00:00,9.965000,-0.180120,
2025-10-24T06:56:44.508940+00:00,9.970000,-0.099940,
2025-10-24T06:56:44.513940+00:00,9.975000,-0.072960,
2025-10-24T06:56:44.518940+00:00,9.980000,-0.074480,
2025-10-24T06:56:44.523940+00:00,9.985000,-0.029260,
2025-10-24T06:56:44.528940+00:00,9.990000,0.036860,
2025-10-24T06:56:44.533940+00:00,9.995000,0.091580,
2025-10-24T06:56:44.538940+00:00,10.000000,0.158460,
2025-10-24T06:56:44.543940+00:00,10.005000,0.180880,
2025-10-24T06:56:44.548940+00:00,10.010000,0.090440,
2025-10-24T06:56:44.553940+00:00,10.015000,0.017100,
2025-10-24T06:56:44.558940+00:00,10.020000,0.162260,
2025-10-24T06:56:44.563940+00:00,10.025000,0.471960,
2025-10-24T06:56:44.568940+00:00,10.030000,0.618260,
2025-10-24T06:56:44.573940+00:00,10.035000,0.370880,
2025-10-24T06:56:44.578940+00:00,10.040000,-0.069540,
2025-10-24T06:56:44.583940+00:00,10.045000,-0.289180,
2025-10-24T06:56:44.588940+00:00,10.050000,-0.187340,
2025-10-24T06:56:44.593940+00:00,10.055000,-0.000380,
2025-10-24T06:56:44.598940+00:00,10.060000,0.101080,
2025-10-24T06:56:44.603940+00:00,10.065000,0.128820,
2025-10-24T06:56:44.608940+00:00,10.070000,0.114760,
2025-10-24T06:56:44.613940+00:00,10.075000,0.092720,
2025-10-24T06:56:44.618940+00:00,10.080000,0.094620,
2025-10-24T06:56:44.623940+00:00,10.085000,0.108680,
2025-10-24T06:56:44.628940+00:00,10.090000,0.103740,
2025-10-24T06:56:44.633940+00:00,10.095000,0.086640,
2025-10-24T06:56:44.638940+00:00,10.100000,0.101460,
2025-10-24T06:56:44.643940+00:00,10.105000,0.118560,
2025-10-24T06:56:44.648940+00:00,10.110000,0.055860,
2025-10-24T06:56:44.653940+00:00,10.115000,-0.042180,
2025-10-24T06:56:44.658940+00:00,10.120000,-0.067260,
2025-10-24T06:56:44.663940+00:00,10.125000,-0.006840,
2025-10-24T06:56:44.668940+00:00,10.130000,0.120080,
2025-10-24T06:56:44.673940+00:00,10.135000,0.190760,
2025-10-24T06:56:44.678940+00:00,10.140000,0.000760,
2025-10-24T06:56:44.683940+00:00,10.145000,-0.511860,
2025-10-24T06:56:44.688940+00:00,10.150000,-1.233100,
2025-10-24T06:56:44.693940+00:00,10.155000,-1.941040,
2025-10-24T06:56:44.698940+00:00,10.160000,-2.327120,
2025-10-24T06:56:44.703940+00:00,10.165000,-2.188800,
2025-10-24T06:56:44.708940+00:00,10.170000,-1.618800,
2025-10-24T06:56:44.713940+00:00,10.175000,-0.872860,
2025-10-24T06:56:44.718940+00:00,10.180000,-0.209380,
2025-10-24T06:56:44.723940+00:00,10.185000,0.180120,
2025-10-24T06:56:44.728940+00:00,10.190000,0.332880,
2025-10-24T06:56:44.733940+00:00,10.195000,0.375820,
2025-10-24T06:56:44.738940+00:00,10.200000,0.319580,
2025-10-24T06:56:44.743940+00:00,10.205000,0.237120,
2025-10-24T06:56:44.748940+00:00,10.210000,0.266760,
2025-10-24T06:56:44.753940+00:00,10.215000,0.422180,
2025-10-24T06:56:44.758940+00:00,10.220000,0.481460,
2025-10-24T06:56:44.763940+00:00,10.225000,0.148200,
2025-10-24T06:56:44.768940+00:00,10.230000,-0.495900,
2025-10-24T06:56:44.773940+00:00,10.235000,-0.989140,
2025-10-24T06:56:44.778940+00:00,10.240000,-1.041200,
2025-10-24T06:56:44.783940+00:00,10.245000,-0.804460,
2025-10-24T06:56:44.788940+00:00,10.250000,-0.577600,
2025-10-24T06:56:44.793940+00:00,10.255000,-0.463220,
2025-10-24T06:56:44.798940+00:00,10.260000,-0.375060,
2025-10-24T06:56:44.803940+00:00,10.265000,-0.226860,
2025-10-24T06:56:44.808940+00:00,10.270000,-0.063080,
2025-10-24T06:56:44.813940+00:00,10.275000,0.066120,
2025-10-24T06:56:44.818940+00:00,10.280000,0.178220,
2025-10-24T06:56:44.823940+00:00,10.285000,0.235220,
2025-10-24T06:56:44.828940+00:00,10.290000,0.221540,
2025-10-24T06:56:44.833940+00:00,10.295000,0.215080,
2025-10-24T06:56:44.838940+00:00,10.300000,0.239780,
2025-10-24T06:56:44.843940+00:00,10.305000,0.256500,
2025-10-24T06:56:44.848940+00:00,10.310000,0.260680,
2025-10-24T06:56:44.853940+00:00,10.315000,0.248900,
2025-10-24T06:56:44.858940+00:00,10.320000,0.186580,
2025-10-24T06:56:44.863940+00:00,10.325000,0.165300,
2025-10-24T06:56:44.868940+00:00,10.330000,0.264100,
2025-10-24T06:56:44.873940+00:00,10.335000,0.270180,
2025-10-24T06:56:44.878940+00:00,10.340000,-0.025840,
2025-10-24T06:56:44.883940+00:00,10.345000,-0.541880,
2025-10-24T06:56:44.888940+00:00,10.350000,-1.078820,
2025-10-24T06:56:44.893940+00:00,10.355000,-1.437540,
2025-10-24T06:56:44.898940+00:00,10.360000,-1.431460,
2025-10-24T06:56:44.903940+00:00,10.365000,-1.040440,
2025-10-24T06:56:44.908940+00:00,10.370000,-0.513760,
2025-10-24T06:56:44.913940+00:00,10.375000,-0.147820,
2025-10-24T06:56:44.918940+00:00,10.380000,-0.036860,
2025-10-24T06:56:44.923940+00:00,10.385000,0.010260,
2025-10-24T06:56:44.928940+00:00,10.390000,0.190380,
2025-10-24T06:56:44.933940+00:00,10.395000,0.378100,
2025-10-24T06:56:44.938940+00:00,10.400000,0.389120,
2025-10-24T06:56:44.943940+00:00,10.405000,0.321860,
2025-10-24T06:56:44.948940+00:00,10.410000,0.284240,
2025-10-24T06:56:44.953940+00:00,10.415000,0.241300,
2025-10-24T06:56:44.958940+00:00,10.420000,0.177460,
2025-10-24T06:56:44.963940+00:00,10.425000,0.137940,
2025-10-24T06:56:44.968940+00:00,10.430000,0.132240,
2025-10-24T06:56:44.973940+00:00,10.435000,0.145920,
2025-10-24T06:56:44.978940+00:00,10.440000,0.182020,
2025-10-24T06:56:44.983940+00:00,10.445000,0.245860,
2025-10-24T06:56:44.988940+00:00,10.450000,0.319960,
2025-10-24T06:56:44.993940+00:00,10.455000,0.337820,
2025-10-24T06:56:44.998940+00:00,10.460000,0.262200,
2025-10-24T06:56:45.003940+00:00,10.465000,0.113240,
2025-10-24T06:56:45.008940+00:00,10.470000,0.014440,
2025-10-24T06:56:45.013940+00:00,10.475000,0.132240,
2025-10-24T06:56:45.018940+00:00,10.480000,0.303620,
2025-10-24T06:56:45.023940+00:00,10.485000,0.148960,
2025-10-24T06:56:45.028940+00:00,10.490000,-0.315780,
2025-10-24T06:56:45.033940+00:00,10.495000,-0.622820,
2025-10-24T06:56:45.038940+00:00,10.500000,-0.487540,
2025-10-24T06:56:45.043940+00:00,10.505000,-0.173280,
2025-10-24T06:56:45.048940+00:00,10.510000,-0.095000,
2025-10-24T06:56:45.053940+00:00,10.515000,-0.323000,
2025-10-24T06:56:45.058940+00:00,10.520000,-0.554040,
2025-10-24T06:56:45.063940+00:00,10.525000,-0.527440,
2025-10-24T06:56:45.068940+00:00,10.530000,-0.345800,
2025-10-24T06:56:45.073940+00:00,10.535000,-0.217360,
2025-10-24T06:56:45.078940+00:00,10.540000,-0.208240,
2025-10-24T06:56:45.083940+00:00,10.545000,-0.347700,
2025-10-24T06:56:45.088940+00:00,10.550000,-0.597740,
2025-10-24T06:56:45.093940+00:00,10.555000,-0.714400,
2025-10-24T06:56:45.098940+00:00,10.560000,-0.576460,
2025-10-24T06:56:45.103940+00:00,10.565000,-0.521740,
2025-10-24T06:56:45.108940+00:00,10.570000,-0.801420,
2025-10-24T06:56:45.113940+00:00,10.575000,-1.085280,
2025-10-24T06:56:45.118940+00:00,10.580000,-0.926440,
2025-10-24T06:56:45.123940+00:00,10.585000,-0.365560,
2025-10-24T06:56:45.128940+00:00,10.590000,0.112860,
2025-10-24T06:56:45.133940+00:00,10.595000,0.192660,
2025-10-24T06:56:45.138940+00:00,10.600000,0.100700,
2025-10-24T06:56:45.143940+00:00,10.605000,0.168340,
2025-10-24T06:56:45.148940+00:00,10.610000,0.291080,
2025-10-24T06:56:45.153940+00:00,10.615000,0.264480,
2025-10-24T06:56:45.158940+00:00,10.620000,0.210140,
2025-10-24T06:56:45.163940+00:00,10.625000,0.229900,
2025-10-24T06:56:45.168940+00:00,10.630000,0.241680,
2025-10-24T06:56:45.173940+00:00,10.635000,0.230280,
2025-10-24T06:56:45.178940+00:00,10.640000,0.231800,
2025-10-24T06:56:45.183940+00:00,10.645000,0.244340,
2025-10-24T06:56:45.188940+00:00,10.650000,0.235220,
2025-10-24T06:56:45.193940+00:00,10.655000,0.184680,
2025-10-24T06:56:45.198940+00:00,10.660000,0.118180,
2025-10-24T06:56:45.203940+00:00,10.665000,0.082080,
2025-10-24T06:56:45.208940+00:00,10.670000,0.104500,
2025-10-24T06:56:45.213940+00:00,10.675000,0.187720,
2025-10-24T06:56:45.218940+00:00,10.680000,0.243960,
2025-10-24T06:56:45.223940+00:00,10.685000,0.152760,
2025-10-24T06:56:45.228940+00:00,10.690000,-0.038380,
2025-10-24T06:56:45.233940+00:00,10.695000,-0.153900,
2025-10-24T06:56:45.238940+00:00,10.700000,-0.145540,
2025-10-24T06:56:45.243940+00:00,10.705000,-0.082840,
2025-10-24T06:56:45.248940+00:00,10.710000,-0.033060,
2025-10-24T06:56:45.253940+00:00,10.715000,-0.043320,
2025-10-24T06:56:45.258940+00:00,10.720000,-0.087020,
2025-10-24T06:56:45.263940+00:00,10.725000,-0.096520,
2025-10-24T06:56:45.268940+00:00,10.730000,-0.052820,
2025-10-24T06:56:45.273940+00:00,10.735000,0.035720,
2025-10-24T06:56:45.278940+00:00,10.740000,0.120080,
2025-10-24T06:56:45.283940+00:00,10.745000,0.150480,
2025-10-24T06:56:45.288940+00:00,10.750000,0.144780,
2025-10-24T06:56:45.293940+00:00,10.755000,0.175940,
2025-10-24T06:56:45.298940+00:00,10.760000,0.272840,
2025-10-24T06:56:45.303940+00:00,10.765000,0.308180,
2025-10-24T06:56:45.308940+00:00,10.770000,0.191140,
2025-10-24T06:56:45.313940+00:00,10.775000,0.005700,
2025-10-24T06:56:45.318940+00:00,10.780000,-0.232180,
2025-10-24T06:56:45.323940+00:00,10.785000,-0.555940,
2025-10-24T06:56:45.328940+00:00,10.790000,-0.783180,
2025-10-24T06:56:45.333940+00:00,10.795000,-0.694260,
2025-10-24T06:56:45.338940+00:00,10.800000,-0.383040,
2025-10-24T06:56:45.343940+00:00,10.805000,-0.112100,
2025-10-24T06:56:45.348940+00:00,10.810000,-0.002280,
2025-10-24T06:56:45.353940+00:00,10.815000,-0.022420,
2025-10-24T06:56:45.358940+00:00,10.820000,-0.029640,
2025-10-24T06:56:45.363940+00:00,10.825000,0.030780,
2025-10-24T06:56:45.368940+00:00,10.830000,0.046360,
2025-10-24T06:56:45.373940+00:00,10.835000,0.014060,
2025-10-24T06:56:45.378940+00:00,10.840000,0.037240,
2025-10-24T06:56:45.383940+00:00,10.845000,0.069920,
2025-10-24T06:56:45.388940+00:00,10.850000,0.052820,
2025-10-24T06:56:45.393940+00:00,10.855000,0.038760,
2025-10-24T06:56:45.398940+00:00,10.860000,0.044840,
2025-10-24T06:56:45.403940+00:00,10.865000,0.020520,
2025-10-24T06:56:45.408940+00:00,10.870000,-0.009120,
2025-10-24T06:56:45.413940+00:00,10.875000,-0.001140,
2025-10-24T06:56:45.418940+00:00,10.880000,0.002280,
2025-10-24T06:56:45.423940+00:00,10.885000,-0.030400,
2025-10-24T06:56:45.428940+00:00,10.890000,-0.056620,
2025-10-24T06:56:45.433940+00:00,10.895000,-0.072200,
2025-10-24T06:56:45.438940+00:00,10.900000,-0.084360,
2025-10-24T06:56:45.443940+00:00,10.905000,-0.073340,
2025-10-24T06:56:45.448940+00:00,10.910000,-0.055860,
2025-10-24T06:56:45.453940+00:00,10.915000,-0.052440,
2025-10-24T06:56:45.458940+00:00,10.920000,-0.034580,
2025-10-24T06:56:45.463940+00:00,10.925000,0.002660,
2025-10-24T06:56:45.468940+00:00,10.930000,0.006460,
2025-10-24T06:56:45.473940+00:00,10.935000,-0.001140,
2025-10-24T06:56:45.478940+00:00,10.940000,0.018620,
2025-10-24T06:56:45.483940+00:00,10.945000,0.029260,
2025-10-24T06:56:45.488940+00:00,10.950000,0.008360,
2025-10-24T06:56:45.493940+00:00,10.955000,0.000000,
2025-10-24T06:56:45.498940+00:00,10.960000,0.013680,
2025-10-24T06:56:45.503940+00:00,10.965000,0.012540,
2025-10-24T06:56:45.508940+00:00,10.970000,-0.006840,
2025-10-24T06:56:45.513940+00:00,10.975000,-0.024320,
2025-10-24T06:56:45.518940+00:00,10.980000,-0.022040,
2025-10-24T06:56:45.523940+00:00,10.985000,0.014820,
2025-10-24T06:56:45.528940+00:00,10.990000,0.052440,
2025-10-24T06:56:45.533940+00:00,10.995000,0.024700,
2025-10-24T06:56:45.538940+00:00,11.000000,-0.037620,
2025-10-24T06:56:45.543940+00:00,11.005000,0.026220,
2025-10-24T06:56:45.548940+00:00,11.010000,0.232560,
2025-10-24T06:56:45.553940+00:00,11.015000,0.325280,
2025-10-24T06:56:45.558940+00:00,11.020000,0.143640,
2025-10-24T06:56:45.563940+00:00,11.025000,-0.116660,
2025-10-24T06:56:45.568940+00:00,11.030000,-0.192660,
2025-10-24T06:56:45.573940+00:00,11.035000,-0.088160,
2025-10-24T06:56:45.578940+00:00,11.040000,0.005700,
2025-10-24T06:56:45.583940+00:00,11.045000,0.000760,
2025-10-24T06:56:45.588940+00:00,11.050000,-0.035340,
2025-10-24T06:56:45.593940+00:00,11.055000,-0.033060,
2025-10-24T06:56:45.598940+00:00,11.060000,-0.037240,
2025-10-24T06:56:45.603940+00:00,11.065000,-0.044460,
2025-10-24T06:56:45.608940+00:00,11.070000,0.010260,
2025-10-24T06:56:45.613940+00:00,11.075000,0.066120,
2025-10-24T06:56:45.618940+00:00,11.080000,0.026600,
2025-10-24T06:56:45.623940+00:00,11.085000,-0.024320,
2025-10-24T06:56:45.628940+00:00,11.090000,0.057760,
2025-10-24T06:56:45.633940+00:00,11.095000,0.223820,
2025-10-24T06:56:45.638940+00:00,11.100000,0.311600,
2025-10-24T06:56:45.643940+00:00,11.105000,0.292980,
2025-10-24T06:56:45.648940+00:00,11.110000,0.257260,
2025-10-24T06:56:45.653940+00:00,11.115000,0.207100,
2025-10-24T06:56:45.658940+00:00,11.120000,0.137560,
2025-10-24T06:56:45.663940+00:00,11.125000,0.155040,
2025-10-24T06:56:45.668940+00:00,11.130000,0.168340,
2025-10-24T06:56:45.673940+00:00,11.135000,-0.072580,
2025-10-24T06:56:45.678940+00:00,11.140000,-0.446500,
2025-10-24T06:56:45.683940+00:00,11.145000,-0.592800,
2025-10-24T06:56:45.688940+00:00,11.150000,-0.439280,
2025-10-24T06:56:45.693940+00:00,11.155000,-0.247760,
2025-10-24T06:56:45.698940+00:00,11.160000,-0.228000,
2025-10-24T06:56:45.703940+00:00,11.165000,-0.244720,
2025-10-24T06:56:45.708940+00:00,11.170000,-0.099180,
2025-10-24T06:56:45.713940+00:00,11.175000,0.061940,
2025-10-24T06:56:45.718940+00:00,11.180000,0.026220,
2025-10-24T06:56:45.723940+00:00,11.185000,-0.023940,
2025-10-24T06:56:45.728940+00:00,11.190000,0.095760,
2025-10-24T06:56:45.733940+00:00,11.195000,0.210140,
2025-10-24T06:56:45.738940+00:00,11.200000,0.218880,
2025-10-24T06:56:45.743940+00:00,11.205000,0.217360,
2025-10-24T06:56:45.748940+00:00,11.210000,0.218120,
2025-10-24T06:56:45.753940+00:00,11.215000,0.214700,
2025-10-24T06:56:45.758940+00:00,11.220000,0.226860,
2025-10-24T06:56:45.763940+00:00,11.225000,0.250040,
2025-10-24T06:56:45.768940+00:00,11.230000,0.192280,
2025-10-24T06:56:45.773940+00:00,11.235000,0.007980,
2025-10-24T06:56:45.778940+00:00,11.240000,-0.108680,
2025-10-24T06:56:45.783940+00:00,11.245000,-0.022800,
2025-10-24T06:56:45.788940+00:00,11.250000,0.034580,
2025-10-24T06:56:45.793940+00:00,11.255000,-0.145920,
2025-10-24T06:56:45.798940+00:00,11.260000,-0.373540,
2025-10-24T06:56:45.803940+00:00,11.265000,-0.334400,
2025-10-24T06:56:45.808940+00:00,11.270000,-0.098420,
2025-10-24T06:56:45.813940+00:00,11.275000,0.019380,
2025-10-24T06:56:45.818940+00:00,11.280000,-0.056620,
2025-10-24T06:56:45.823940+00:00,11.285000,-0.080180,
2025-10-24T06:56:45.828940+00:00,11.290000,0.087020,
2025-10-24T06:56:45.833940+00:00,11.295000,0.243200,
2025-10-24T06:56:45.838940+00:00,11.300000,0.243200,
2025-10-24T06:56:45.843940+00:00,11.305000,0.196460,
2025-10-24T06:56:45.848940+00:00,11.310000,0.179360,
2025-10-24T06:56:45.853940+00:00,11.315000,0.157700,
2025-10-24T06:56:45.858940+00:00,11.320000,0.112860,
2025-10-24T06:56:45.863940+00:00,11.325000,0.099940,
2025-10-24T06:56:45.868940+00:00,11.330000,0.109060,
2025-10-24T06:56:45.873940+00:00,11.335000,0.029260,
2025-10-24T06:56:45.878940+00:00,11.340000,-0.139460,
2025-10-24T06:56:45.883940+00:00,11.345000,-0.235980,
2025-10-24T06:56:45.888940+00:00,11.350000,-0.172900,
2025-10-24T06:56:45.893940+00:00,11.355000,-0.076380,
2025-10-24T06:56:45.898940+00:00,11.360000,-0.078660,
2025-10-24T06:56:45.903940+00:00,11.365000,-0.106020,
2025-10-24T06:56:45.908940+00:00,11.370000,-0.050160,
2025-10-24T06:56:45.913940+00:00,11.375000,0.017100,
2025-10-24T06:56:45.918940+00:00,11.380000,0.004180,
2025-10-24T06:56:45.923940+00:00,11.385000,-0.001900,
