timestamp_utc,t_rel_sec,ecg_mV,event
2025-10-16T06:29:49.363103+00:00,0.000000,0.000000,
2025-10-16T06:29:49.368103+00:00,0.005000,0.000000,
2025-10-16T06:29:49.373103+00:00,0.010000,-0.001140,
2025-10-16T06:29:49.378103+00:00,0.015000,-0.001900,
2025-10-16T06:29:49.383103+00:00,0.020000,0.017860,
2025-10-16T06:29:49.388103+00:00,0.025000,-0.028120,
2025-10-16T06:29:49.393103+00:00,0.030000,-0.096900,
2025-10-16T06:29:49.398103+00:00,0.035000,0.285760,
2025-10-16T06:29:49.403103+00:00,0.040000,0.224960,
2025-10-16T06:29:49.408103+00:00,0.045000,-1.283640,
2025-10-16T06:29:49.413103+00:00,0.050000,-1.075400,
2025-10-16T06:29:49.418103+00:00,0.055000,2.600340,
2025-10-16T06:29:49.423103+00:00,0.060000,2.815420,
2025-10-16T06:29:49.428103+00:00,0.065000,-8.696300,
2025-10-16T06:29:49.433103+00:00,0.070000,-29.538540,
2025-10-16T06:29:49.438103+00:00,0.075000,-47.311520,
2025-10-16T06:29:49.443103+00:00,0.080000,-48.146380,
2025-10-16T06:29:49.448103+00:00,0.085000,-47.395880,
2025-10-16T06:29:49.453103+00:00,0.090000,-41.685240,
2025-10-16T06:29:49.458103+00:00,0.095000,-38.098800,
2025-10-16T06:29:49.463103+00:00,0.100000,-35.796000,
2025-10-16T06:29:49.468103+00:00,0.105000,-34.530220,
2025-10-16T06:29:49.473103+00:00,0.110000,-34.494880,
2025-10-16T06:29:49.478103+00:00,0.115000,-34.226980,
2025-10-16T06:29:49.483103+00:00,0.120000,-33.431640,
2025-10-16T06:29:49.488103+00:00,0.125000,-32.836940,
2025-10-16T06:29:49.493103+00:00,0.130000,-32.399180,
2025-10-16T06:29:49.498103+00:00,0.135000,-31.897960,
2025-10-16T06:29:49.503103+00:00,0.140000,-31.391420,
2025-10-16T06:29:49.508103+00:00,0.145000,-30.907680,
2025-10-16T06:29:49.513103+00:00,0.150000,-30.428120,
2025-10-16T06:29:49.518103+00:00,0.155000,-29.954640,
2025-10-16T06:29:49.523103+00:00,0.160000,-29.489140,
2025-10-16T06:29:49.528103+00:00,0.165000,-29.031620,
2025-10-16T06:29:49.533103+00:00,0.170000,-28.581320,
2025-10-16T06:29:49.538103+00:00,0.175000,-28.137860,
2025-10-16T06:29:49.543103+00:00,0.180000,-27.700480,
2025-10-16T06:29:49.548103+00:00,0.185000,-27.271080,
2025-10-16T06:29:49.553103+00:00,0.190000,-26.846620,
2025-10-16T06:29:49.558103+00:00,0.195000,-26.429380,
2025-10-16T06:29:49.563103+00:00,0.200000,-26.016700,
2025-10-16T06:29:49.568103+00:00,0.205000,-25.612380,
2025-10-16T06:29:49.573103+00:00,0.210000,-25.215280,
2025-10-16T06:29:49.578103+00:00,0.215000,-24.823880,
2025-10-16T06:29:49.583103+00:00,0.220000,-24.437800,
2025-10-16T06:29:49.588103+00:00,0.225000,-24.057800,
2025-10-16T06:29:49.593103+00:00,0.230000,-23.683120,
2025-10-16T06:29:49.598103+00:00,0.235000,-23.315660,
2025-10-16T06:29:49.603103+00:00,0.240000,-22.954660,
2025-10-16T06:29:49.608103+00:00,0.245000,-22.596700,
2025-10-16T06:29:49.613103+00:00,0.250000,-22.242920,
2025-10-16T06:29:49.618103+00:00,0.255000,-21.894460,
2025-10-16T06:29:49.623103+00:00,0.260000,-21.552840,
2025-10-16T06:29:49.628103+00:00,0.265000,-21.216920,
2025-10-16T06:29:49.633103+00:00,0.270000,-20.885180,
2025-10-16T06:29:49.638103+00:00,0.275000,-20.559900,
2025-10-16T06:29:49.643103+00:00,0.280000,-20.240700,
2025-10-16T06:29:49.648103+00:00,0.285000,-19.926820,
2025-10-16T06:29:49.653103+00:00,0.290000,-19.617500,
2025-10-16T06:29:49.658103+00:00,0.295000,-19.312360,
2025-10-16T06:29:49.663103+00:00,0.300000,-19.011020,
2025-10-16T06:29:49.668103+00:00,0.305000,-18.715760,
2025-10-16T06:29:49.673103+00:00,0.310000,-18.425820,
2025-10-16T06:29:49.678103+00:00,0.315000,-18.139300,
2025-10-16T06:29:49.683103+00:00,0.320000,-17.855820,
2025-10-16T06:29:49.688103+00:00,0.325000,-17.578040,
2025-10-16T06:29:49.693103+00:00,0.330000,-17.304060,
2025-10-16T06:29:49.698103+00:00,0.335000,-17.035400,
2025-10-16T06:29:49.703103+00:00,0.340000,-16.770540,
2025-10-16T06:29:49.708103+00:00,0.345000,-16.509860,
2025-10-16T06:29:49.713103+00:00,0.350000,-16.254120,
2025-10-16T06:29:49.718103+00:00,0.355000,-16.001800,
2025-10-16T06:29:49.723103+00:00,0.360000,-15.752140,
2025-10-16T06:29:49.728103+00:00,0.365000,-15.506280,
2025-10-16T06:29:49.733103+00:00,0.370000,-15.264980,
2025-10-16T06:29:49.738103+00:00,0.375000,-15.027100,
2025-10-16T06:29:49.743103+00:00,0.380000,-14.793020,
2025-10-16T06:29:49.748103+00:00,0.385000,-14.561980,
2025-10-16T06:29:49.753103+00:00,0.390000,-14.335880,
2025-10-16T06:29:49.758103+00:00,0.395000,-14.112060,
2025-10-16T06:29:49.763103+00:00,0.400000,-13.892040,
2025-10-16T06:29:49.768103+00:00,0.405000,-13.675060,
2025-10-16T06:29:49.773103+00:00,0.410000,-13.461500,
2025-10-16T06:29:49.778103+00:00,0.415000,-13.252120,
2025-10-16T06:29:49.783103+00:00,0.420000,-13.046160,
2025-10-16T06:29:49.788103+00:00,0.425000,-12.841720,
2025-10-16T06:29:49.793103+00:00,0.430000,-12.640700,
2025-10-16T06:29:49.798103+00:00,0.435000,-12.443860,
2025-10-16T06:29:49.803103+00:00,0.440000,-12.248160,
2025-10-16T06:29:49.808103+00:00,0.445000,-12.056640,
2025-10-16T06:29:49.813103+00:00,0.450000,-11.867780,
2025-10-16T06:29:49.818103+00:00,0.455000,-11.681200,
2025-10-16T06:29:49.823103+00:00,0.460000,-11.496900,
2025-10-16T06:29:49.828103+00:00,0.465000,-11.314500,
2025-10-16T06:29:49.833103+00:00,0.470000,-11.135140,
2025-10-16T06:29:49.838103+00:00,0.475000,-10.956160,
2025-10-16T06:29:49.843103+00:00,0.480000,-10.780220,
2025-10-16T06:29:49.848103+00:00,0.485000,-10.605420,
2025-10-16T06:29:49.853103+00:00,0.490000,-10.432520,
2025-10-16T06:29:49.858103+00:00,0.495000,-10.260760,
2025-10-16T06:29:49.863103+00:00,0.500000,-10.090140,
2025-10-16T06:29:49.868103+00:00,0.505000,-9.925220,
2025-10-16T06:29:49.873103+00:00,0.510000,-9.765620,
2025-10-16T06:29:49.878103+00:00,0.515000,-9.611340,
2025-10-16T06:29:49.883103+00:00,0.520000,-9.455160,
2025-10-16T06:29:49.888103+00:00,0.525000,-9.297460,
2025-10-16T06:29:49.893103+00:00,0.530000,-9.140140,
2025-10-16T06:29:49.898103+00:00,0.535000,-8.990420,
2025-10-16T06:29:49.903103+00:00,0.540000,-8.844120,
2025-10-16T06:29:49.908103+00:00,0.545000,-8.700860,
2025-10-16T06:29:49.913103+00:00,0.550000,-8.559120,
2025-10-16T06:29:49.918103+00:00,0.555000,-8.421180,
2025-10-16T06:29:49.923103+00:00,0.560000,-8.286280,
2025-10-16T06:29:49.928103+00:00,0.565000,-8.157080,
2025-10-16T06:29:49.933103+00:00,0.570000,-8.030160,
2025-10-16T06:29:49.938103+00:00,0.575000,-7.905520,
2025-10-16T06:29:49.943103+00:00,0.580000,-7.780880,
2025-10-16T06:29:49.948103+00:00,0.585000,-7.658900,
2025-10-16T06:29:49.953103+00:00,0.590000,-7.539960,
2025-10-16T06:29:49.958103+00:00,0.595000,-7.422540,
2025-10-16T06:29:49.963103+00:00,0.600000,-7.307400,
2025-10-16T06:29:49.968103+00:00,0.605000,-7.192640,
2025-10-16T06:29:49.973103+00:00,0.610000,-7.079400,
2025-10-16T06:29:49.978103+00:00,0.615000,-6.968440,
2025-10-16T06:29:49.983103+00:00,0.620000,-6.861660,
2025-10-16T06:29:49.988103+00:00,0.625000,-6.756020,
2025-10-16T06:29:49.993103+00:00,0.630000,-6.651900,
2025-10-16T06:29:49.998103+00:00,0.635000,-6.549300,
2025-10-16T06:29:50.003103+00:00,0.640000,-6.445940,
2025-10-16T06:29:50.008103+00:00,0.645000,-6.344860,
2025-10-16T06:29:50.013103+00:00,0.650000,-6.247200,
2025-10-16T06:29:50.018103+00:00,0.655000,-6.150680,
2025-10-16T06:29:50.023103+00:00,0.660000,-6.053780,
2025-10-16T06:29:50.028103+00:00,0.665000,-5.956500,
2025-10-16T06:29:50.033103+00:00,0.670000,-5.862260,
2025-10-16T06:29:50.038103+00:00,0.675000,-5.771060,
2025-10-16T06:29:50.043103+00:00,0.680000,-5.681000,
2025-10-16T06:29:50.048103+00:00,0.685000,-5.590180,
2025-10-16T06:29:50.053103+00:00,0.690000,-5.500120,
2025-10-16T06:29:50.058103+00:00,0.695000,-5.413100,
2025-10-16T06:29:50.063103+00:00,0.700000,-5.322660,
2025-10-16T06:29:50.068103+00:00,0.705000,-5.225760,
2025-10-16T06:29:50.073103+00:00,0.710000,-5.175600,
2025-10-16T06:29:50.078103+00:00,0.715000,-5.109100,
2025-10-16T06:29:50.083103+00:00,0.720000,-4.837780,
2025-10-16T06:29:50.088103+00:00,0.725000,-4.604460,
2025-10-16T06:29:50.093103+00:00,0.730000,-4.873120,
2025-10-16T06:29:50.098103+00:00,0.735000,-5.091620,
2025-10-16T06:29:50.103103+00:00,0.740000,-3.551100,
2025-10-16T06:29:50.108103+00:00,0.745000,0.858420,
2025-10-16T06:29:50.113103+00:00,0.750000,7.144000,
2025-10-16T06:29:50.118103+00:00,0.755000,13.043120,
2025-10-16T06:29:50.123103+00:00,0.760000,17.200320,
2025-10-16T06:29:50.128103+00:00,0.765000,19.968620,
2025-10-16T06:29:50.133103+00:00,0.770000,22.173760,
2025-10-16T06:29:50.138103+00:00,0.775000,23.978000,
2025-10-16T06:29:50.143103+00:00,0.780000,25.271520,
2025-10-16T06:29:50.148103+00:00,0.785000,26.170220,
2025-10-16T06:29:50.153103+00:00,0.790000,26.807480,
2025-10-16T06:29:50.158103+00:00,0.795000,27.230040,
2025-10-16T06:29:50.163103+00:00,0.800000,27.478180,
2025-10-16T06:29:50.168103+00:00,0.805000,27.591040,
2025-10-16T06:29:50.173103+00:00,0.810000,27.600920,
2025-10-16T06:29:50.178103+00:00,0.815000,27.531380,
2025-10-16T06:29:50.183103+00:00,0.820000,27.399140,
2025-10-16T06:29:50.188103+00:00,0.825000,27.215600,
2025-10-16T06:29:50.193103+00:00,0.830000,26.995580,
2025-10-16T06:29:50.198103+00:00,0.835000,26.743260,
2025-10-16T06:29:50.203103+00:00,0.840000,26.464720,
2025-10-16T06:29:50.208103+00:00,0.845000,26.166420,
2025-10-16T06:29:50.213103+00:00,0.850000,25.859760,
2025-10-16T06:29:50.218103+00:00,0.855000,25.551580,
2025-10-16T06:29:50.223103+00:00,0.860000,25.240360,
2025-10-16T06:29:50.228103+00:00,0.865000,24.927240,
2025-10-16T06:29:50.233103+00:00,0.870000,24.609560,
2025-10-16T06:29:50.238103+00:00,0.875000,24.286560,
2025-10-16T06:29:50.243103+00:00,0.880000,23.958620,
2025-10-16T06:29:50.248103+00:00,0.885000,23.625740,
2025-10-16T06:29:50.253103+00:00,0.890000,23.297420,
2025-10-16T06:29:50.258103+00:00,0.895000,22.979360,
2025-10-16T06:29:50.263103+00:00,0.900000,22.670420,
2025-10-16T06:29:50.268103+00:00,0.905000,22.359200,
2025-10-16T06:29:50.273103+00:00,0.910000,22.049880,
2025-10-16T06:29:50.278103+00:00,0.915000,21.746640,
2025-10-16T06:29:50.283103+00:00,0.920000,21.443780,
2025-10-16T06:29:50.288103+00:00,0.925000,21.136360,
2025-10-16T06:29:50.293103+00:00,0.930000,20.823240,
2025-10-16T06:29:50.298103+00:00,0.935000,20.510500,
2025-10-16T06:29:50.303103+00:00,0.940000,20.201940,
2025-10-16T06:29:50.308103+00:00,0.945000,19.896420,
2025-10-16T06:29:50.313103+00:00,0.950000,19.590520,
2025-10-16T06:29:50.318103+00:00,0.955000,19.285760,
2025-10-16T06:29:50.323103+00:00,0.960000,18.988220,
2025-10-16T06:29:50.328103+00:00,0.965000,18.703220,
2025-10-16T06:29:50.333103+00:00,0.970000,18.428860,
2025-10-16T06:29:50.338103+00:00,0.975000,18.151460,
2025-10-16T06:29:50.343103+00:00,0.980000,17.864180,
2025-10-16T06:29:50.348103+00:00,0.985000,17.573860,
2025-10-16T06:29:50.353103+00:00,0.990000,17.293040,
2025-10-16T06:29:50.358103+00:00,0.995000,17.021720,
2025-10-16T06:29:50.363103+00:00,1.000000,16.756480,
2025-10-16T06:29:50.368103+00:00,1.005000,16.492000,
2025-10-16T06:29:50.373103+00:00,1.010000,16.235120,
2025-10-16T06:29:50.378103+00:00,1.015000,15.982420,
2025-10-16T06:29:50.383103+00:00,1.020000,15.736940,
2025-10-16T06:29:50.388103+00:00,1.025000,15.499820,
2025-10-16T06:29:50.393103+00:00,1.030000,15.270300,
2025-10-16T06:29:50.398103+00:00,1.035000,15.035840,
2025-10-16T06:29:50.403103+00:00,1.040000,14.794160,
2025-10-16T06:29:50.408103+00:00,1.045000,14.553620,
2025-10-16T06:29:50.413103+00:00,1.050000,14.330180,
2025-10-16T06:29:50.418103+00:00,1.055000,14.120420,
2025-10-16T06:29:50.423103+00:00,1.060000,13.909140,
2025-10-16T06:29:50.428103+00:00,1.065000,13.693680,
2025-10-16T06:29:50.433103+00:00,1.070000,13.485440,
2025-10-16T06:29:50.438103+00:00,1.075000,13.285940,
2025-10-16T06:29:50.443103+00:00,1.080000,13.088720,
2025-10-16T06:29:50.448103+00:00,1.085000,12.888080,
2025-10-16T06:29:50.453103+00:00,1.090000,12.685920,
2025-10-16T06:29:50.458103+00:00,1.095000,12.489460,
2025-10-16T06:29:50.463103+00:00,1.100000,12.294140,
2025-10-16T06:29:50.468103+00:00,1.105000,12.103000,
2025-10-16T06:29:50.473103+00:00,1.110000,11.919080,
2025-10-16T06:29:50.478103+00:00,1.115000,11.747700,
2025-10-16T06:29:50.483103+00:00,1.120000,11.577840,
2025-10-16T06:29:50.488103+00:00,1.125000,11.407220,
2025-10-16T06:29:50.493103+00:00,1.130000,11.237360,
2025-10-16T06:29:50.498103+00:00,1.135000,11.074340,
2025-10-16T06:29:50.503103+00:00,1.140000,10.917020,
2025-10-16T06:29:50.508103+00:00,1.145000,10.764640,
2025-10-16T06:29:50.513103+00:00,1.150000,10.611120,
2025-10-16T06:29:50.518103+00:00,1.155000,10.452660,
2025-10-16T06:29:50.523103+00:00,1.160000,10.288120,
2025-10-16T06:29:50.528103+00:00,1.165000,10.120160,
2025-10-16T06:29:50.533103+00:00,1.170000,9.961700,
2025-10-16T06:29:50.538103+00:00,1.175000,9.815780,
2025-10-16T06:29:50.543103+00:00,1.180000,9.677460,
2025-10-16T06:29:50.548103+00:00,1.185000,9.537240,
2025-10-16T06:29:50.553103+00:00,1.190000,9.393980,
2025-10-16T06:29:50.558103+00:00,1.195000,9.250340,
2025-10-16T06:29:50.563103+00:00,1.200000,9.108980,
2025-10-16T06:29:50.568103+00:00,1.205000,8.968380,
2025-10-16T06:29:50.573103+00:00,1.210000,8.832340,
2025-10-16T06:29:50.578103+00:00,1.215000,8.702760,
2025-10-16T06:29:50.583103+00:00,1.220000,8.577740,
2025-10-16T06:29:50.588103+00:00,1.225000,8.447400,
2025-10-16T06:29:50.593103+00:00,1.230000,8.305280,
2025-10-16T06:29:50.598103+00:00,1.235000,8.159360,
2025-10-16T06:29:50.603103+00:00,1.240000,8.024840,
2025-10-16T06:29:50.608103+00:00,1.245000,7.904380,
2025-10-16T06:29:50.613103+00:00,1.250000,7.788860,
2025-10-16T06:29:50.618103+00:00,1.255000,7.672960,
2025-10-16T06:29:50.623103+00:00,1.260000,7.557060,
2025-10-16T06:29:50.628103+00:00,1.265000,7.447240,
2025-10-16T06:29:50.633103+00:00,1.270000,7.336280,
2025-10-16T06:29:50.638103+00:00,1.275000,7.220000,
2025-10-16T06:29:50.643103+00:00,1.280000,7.097640,
2025-10-16T06:29:50.648103+00:00,1.285000,6.979460,
2025-10-16T06:29:50.653103+00:00,1.290000,6.870780,
2025-10-16T06:29:50.658103+00:00,1.295000,6.766280,
2025-10-16T06:29:50.663103+00:00,1.300000,6.665580,
2025-10-16T06:29:50.668103+00:00,1.305000,6.567920,
2025-10-16T06:29:50.673103+00:00,1.310000,6.466840,
2025-10-16T06:29:50.678103+00:00,1.315000,6.363480,
2025-10-16T06:29:50.683103+00:00,1.320000,6.260500,
2025-10-16T06:29:50.688103+00:00,1.325000,6.165120,
2025-10-16T06:29:50.693103+00:00,1.330000,6.078100,
2025-10-16T06:29:50.698103+00:00,1.335000,5.994880,
2025-10-16T06:29:50.703103+00:00,1.340000,5.913180,
2025-10-16T06:29:50.708103+00:00,1.345000,5.826160,
2025-10-16T06:29:50.713103+00:00,1.350000,5.734200,
2025-10-16T06:29:50.718103+00:00,1.355000,5.641100,
2025-10-16T06:29:50.723103+00:00,1.360000,5.559400,
2025-10-16T06:29:50.728103+00:00,1.365000,5.493280,
2025-10-16T06:29:50.733103+00:00,1.370000,5.429060,
2025-10-16T06:29:50.738103+00:00,1.375000,5.351540,
2025-10-16T06:29:50.743103+00:00,1.380000,5.262620,
2025-10-16T06:29:50.748103+00:00,1.385000,5.169520,
2025-10-16T06:29:50.753103+00:00,1.390000,5.078320,
2025-10-16T06:29:50.758103+00:00,1.395000,4.990920,
2025-10-16T06:29:50.763103+00:00,1.400000,4.909980,
2025-10-16T06:29:50.768103+00:00,1.405000,4.839300,
2025-10-16T06:29:50.773103+00:00,1.410000,4.773940,
2025-10-16T06:29:50.778103+00:00,1.415000,4.703640,
2025-10-16T06:29:50.783103+00:00,1.420000,4.627640,
2025-10-16T06:29:50.788103+00:00,1.425000,4.552400,
2025-10-16T06:29:50.793103+00:00,1.430000,4.486660,
2025-10-16T06:29:50.798103+00:00,1.435000,4.425860,
2025-10-16T06:29:50.803103+00:00,1.440000,4.362400,
2025-10-16T06:29:50.808103+00:00,1.445000,4.294380,
2025-10-16T06:29:50.813103+00:00,1.450000,4.227880,
2025-10-16T06:29:50.818103+00:00,1.455000,4.167080,
2025-10-16T06:29:50.823103+00:00,1.460000,4.108180,
2025-10-16T06:29:50.828103+00:00,1.465000,4.043580,
2025-10-16T06:29:50.833103+00:00,1.470000,3.978980,
2025-10-16T06:29:50.838103+00:00,1.475000,3.920840,
2025-10-16T06:29:50.843103+00:00,1.480000,3.869160,
2025-10-16T06:29:50.848103+00:00,1.485000,3.814060,
2025-10-16T06:29:50.853103+00:00,1.490000,3.753640,
2025-10-16T06:29:50.858103+00:00,1.495000,3.692840,
2025-10-16T06:29:50.863103+00:00,1.500000,3.633560,
2025-10-16T06:29:50.868103+00:00,1.505000,3.575040,
2025-10-16T06:29:50.873103+00:00,1.510000,3.516900,
2025-10-16T06:29:50.878103+00:00,1.515000,3.461800,
2025-10-16T06:29:50.883103+00:00,1.520000,3.412020,
2025-10-16T06:29:50.888103+00:00,1.525000,3.366420,
2025-10-16T06:29:50.893103+00:00,1.530000,3.319680,
2025-10-16T06:29:50.898103+00:00,1.535000,3.275600,
2025-10-16T06:29:50.903103+00:00,1.540000,3.230760,
2025-10-16T06:29:50.908103+00:00,1.545000,3.184780,
2025-10-16T06:29:50.913103+00:00,1.550000,3.135380,
2025-10-16T06:29:50.918103+00:00,1.555000,3.085980,
2025-10-16T06:29:50.923103+00:00,1.560000,3.042280,
2025-10-16T06:29:50.928103+00:00,1.565000,3.000480,
2025-10-16T06:29:50.933103+00:00,1.570000,2.957540,
2025-10-16T06:29:50.938103+00:00,1.575000,2.915740,
2025-10-16T06:29:50.943103+00:00,1.580000,2.875460,
2025-10-16T06:29:50.948103+00:00,1.585000,2.834420,
2025-10-16T06:29:50.953103+00:00,1.590000,2.790340,
2025-10-16T06:29:50.958103+00:00,1.595000,2.743220,
2025-10-16T06:29:50.963103+00:00,1.600000,2.697240,
2025-10-16T06:29:50.968103+00:00,1.605000,2.653540,
2025-10-16T06:29:50.973103+00:00,1.610000,2.609080,
2025-10-16T06:29:50.978103+00:00,1.615000,2.564620,
2025-10-16T06:29:50.983103+00:00,1.620000,2.522440,
2025-10-16T06:29:50.988103+00:00,1.625000,2.489760,
2025-10-16T06:29:50.993103+00:00,1.630000,2.459360,
2025-10-16T06:29:50.998103+00:00,1.635000,2.423640,
2025-10-16T06:29:51.003103+00:00,1.640000,2.381460,
2025-10-16T06:29:51.008103+00:00,1.645000,2.342320,
2025-10-16T06:29:51.013103+00:00,1.650000,2.314960,
2025-10-16T06:29:51.018103+00:00,1.655000,2.294440,
2025-10-16T06:29:51.023103+00:00,1.660000,2.268980,
2025-10-16T06:29:51.028103+00:00,1.665000,2.236300,
2025-10-16T06:29:51.033103+00:00,1.670000,2.200200,
2025-10-16T06:29:51.038103+00:00,1.675000,2.163340,
2025-10-16T06:29:51.043103+00:00,1.680000,2.126860,
2025-10-16T06:29:51.048103+00:00,1.685000,2.087720,
2025-10-16T06:29:51.053103+00:00,1.690000,2.048580,
2025-10-16T06:29:51.058103+00:00,1.695000,2.006400,
2025-10-16T06:29:51.063103+00:00,1.700000,1.968400,
2025-10-16T06:29:51.068103+00:00,1.705000,1.939140,
2025-10-16T06:29:51.073103+00:00,1.710000,1.914060,
2025-10-16T06:29:51.078103+00:00,1.715000,1.885560,
2025-10-16T06:29:51.083103+00:00,1.720000,1.854400,
2025-10-16T06:29:51.088103+00:00,1.725000,1.825900,
2025-10-16T06:29:51.093103+00:00,1.730000,1.804240,
2025-10-16T06:29:51.098103+00:00,1.735000,1.782580,
2025-10-16T06:29:51.103103+00:00,1.740000,1.752180,
2025-10-16T06:29:51.108103+00:00,1.745000,1.717980,
2025-10-16T06:29:51.113103+00:00,1.750000,1.686820,
2025-10-16T06:29:51.118103+00:00,1.755000,1.656420,
2025-10-16T06:29:51.123103+00:00,1.760000,1.627920,
2025-10-16T06:29:51.128103+00:00,1.765000,1.601700,
2025-10-16T06:29:51.133103+00:00,1.770000,1.579280,
2025-10-16T06:29:51.138103+00:00,1.775000,1.560660,
2025-10-16T06:29:51.143103+00:00,1.780000,1.542040,
2025-10-16T06:29:51.148103+00:00,1.785000,1.515820,
2025-10-16T06:29:51.153103+00:00,1.790000,1.484660,
2025-10-16T06:29:51.158103+00:00,1.795000,1.455400,
2025-10-16T06:29:51.163103+00:00,1.800000,1.431080,
2025-10-16T06:29:51.168103+00:00,1.805000,1.410180,
2025-10-16T06:29:51.173103+00:00,1.810000,1.388900,
2025-10-16T06:29:51.178103+00:00,1.815000,1.367620,
2025-10-16T06:29:51.183103+00:00,1.820000,1.345960,
2025-10-16T06:29:51.188103+00:00,1.825000,1.325060,
2025-10-16T06:29:51.193103+00:00,1.830000,1.302260,
2025-10-16T06:29:51.198103+00:00,1.835000,1.279840,
2025-10-16T06:29:51.203103+00:00,1.840000,1.258180,
2025-10-16T06:29:51.208103+00:00,1.845000,1.236900,
2025-10-16T06:29:51.213103+00:00,1.850000,1.214100,
2025-10-16T06:29:51.218103+00:00,1.855000,1.192060,
2025-10-16T06:29:51.223103+00:00,1.860000,1.175720,
2025-10-16T06:29:51.228103+00:00,1.865000,1.165840,
2025-10-16T06:29:51.233103+00:00,1.870000,1.159380,
2025-10-16T06:29:51.238103+00:00,1.875000,1.147980,
2025-10-16T06:29:51.243103+00:00,1.880000,1.125940,
2025-10-16T06:29:51.248103+00:00,1.885000,1.098580,
2025-10-16T06:29:51.253103+00:00,1.890000,1.075780,
2025-10-16T06:29:51.258103+00:00,1.895000,1.059820,
2025-10-16T06:29:51.263103+00:00,1.900000,1.045380,
2025-10-16T06:29:51.268103+00:00,1.905000,1.027140,
2025-10-16T06:29:51.273103+00:00,1.910000,1.005860,
2025-10-16T06:29:51.278103+00:00,1.915000,0.995600,
2025-10-16T06:29:51.283103+00:00,1.920000,1.001300,
2025-10-16T06:29:51.288103+00:00,1.925000,1.013840,
2025-10-16T06:29:51.293103+00:00,1.930000,1.024860,
2025-10-16T06:29:51.298103+00:00,1.935000,1.026000,
2025-10-16T06:29:51.303103+00:00,1.940000,1.020680,
2025-10-16T06:29:51.308103+00:00,1.945000,1.015360,
2025-10-16T06:29:51.313103+00:00,1.950000,1.003200,
2025-10-16T06:29:51.318103+00:00,1.955000,0.984200,
2025-10-16T06:29:51.323103+00:00,1.960000,0.958360,
2025-10-16T06:29:51.328103+00:00,1.965000,0.926820,
2025-10-16T06:29:51.333103+00:00,1.970000,0.891480,
2025-10-16T06:29:51.338103+00:00,1.975000,0.859180,
2025-10-16T06:29:51.343103+00:00,1.980000,0.834860,
2025-10-16T06:29:51.348103+00:00,1.985000,0.821180,
2025-10-16T06:29:51.353103+00:00,1.990000,0.809400,
2025-10-16T06:29:51.358103+00:00,1.995000,0.793820,
2025-10-16T06:29:51.363103+00:00,2.000000,0.772160,
2025-10-16T06:29:51.368103+00:00,2.005000,0.751640,
2025-10-16T06:29:51.373103+00:00,2.010000,0.733400,
2025-10-16T06:29:51.378103+00:00,2.015000,0.720480,
2025-10-16T06:29:51.383103+00:00,2.020000,0.709840,
2025-10-16T06:29:51.388103+00:00,2.025000,0.698060,
2025-10-16T06:29:51.393103+00:00,2.030000,0.684000,
2025-10-16T06:29:51.398103+00:00,2.035000,0.670700,
2025-10-16T06:29:51.403103+00:00,2.040000,0.658160,
2025-10-16T06:29:51.408103+00:00,2.045000,0.642580,
2025-10-16T06:29:51.413103+00:00,2.050000,0.623200,
2025-10-16T06:29:51.418103+00:00,2.055000,0.606100,
2025-10-16T06:29:51.423103+00:00,2.060000,0.594320,
2025-10-16T06:29:51.428103+00:00,2.065000,0.586720,
2025-10-16T06:29:51.433103+00:00,2.070000,0.577220,
2025-10-16T06:29:51.438103+00:00,2.075000,0.565440,
2025-10-16T06:29:51.443103+00:00,2.080000,0.554420,
2025-10-16T06:29:51.448103+00:00,2.085000,0.547200,
2025-10-16T06:29:51.453103+00:00,2.090000,0.537700,
2025-10-16T06:29:51.458103+00:00,2.095000,0.525920,
2025-10-16T06:29:51.463103+00:00,2.100000,0.518320,
2025-10-16T06:29:51.468103+00:00,2.105000,0.513760,
2025-10-16T06:29:51.473103+00:00,2.110000,0.513000,
2025-10-16T06:29:51.478103+00:00,2.115000,0.511480,
2025-10-16T06:29:51.483103+00:00,2.120000,0.511480,
2025-10-16T06:29:51.488103+00:00,2.125000,0.518700,
2025-10-16T06:29:51.493103+00:00,2.130000,0.532380,
2025-10-16T06:29:51.498103+00:00,2.135000,0.539980,
2025-10-16T06:29:51.503103+00:00,2.140000,0.541500,
2025-10-16T06:29:51.508103+00:00,2.145000,0.534660,
2025-10-16T06:29:51.513103+00:00,2.150000,0.527440,
2025-10-16T06:29:51.518103+00:00,2.155000,0.520220,
2025-10-16T06:29:51.523103+00:00,2.160000,0.509580,
2025-10-16T06:29:51.528103+00:00,2.165000,0.492480,
2025-10-16T06:29:51.533103+00:00,2.170000,0.471580,
2025-10-16T06:29:51.538103+00:00,2.175000,0.451060,
2025-10-16T06:29:51.543103+00:00,2.180000,0.435480,
2025-10-16T06:29:51.548103+00:00,2.185000,0.420280,
2025-10-16T06:29:51.553103+00:00,2.190000,0.402420,
2025-10-16T06:29:51.558103+00:00,2.195000,0.381520,
2025-10-16T06:29:51.563103+00:00,2.200000,0.367840,
2025-10-16T06:29:51.568103+00:00,2.205000,0.362140,
2025-10-16T06:29:51.573103+00:00,2.210000,0.360620,
2025-10-16T06:29:51.578103+00:00,2.215000,0.356820,
2025-10-16T06:29:51.583103+00:00,2.220000,0.353020,
2025-10-16T06:29:51.588103+00:00,2.225000,0.353400,
2025-10-16T06:29:51.593103+00:00,2.230000,0.355680,
2025-10-16T06:29:51.598103+00:00,2.235000,0.356820,
2025-10-16T06:29:51.603103+00:00,2.240000,0.357960,
2025-10-16T06:29:51.608103+00:00,2.245000,0.359100,
2025-10-16T06:29:51.613103+00:00,2.250000,0.359480,
2025-10-16T06:29:51.618103+00:00,2.255000,0.355300,
2025-10-16T06:29:51.623103+00:00,2.260000,0.348460,
2025-10-16T06:29:51.628103+00:00,2.265000,0.342760,
2025-10-16T06:29:51.633103+00:00,2.270000,0.335160,
2025-10-16T06:29:51.638103+00:00,2.275000,0.325660,
2025-10-16T06:29:51.643103+00:00,2.280000,0.315020,
2025-10-16T06:29:51.648103+00:00,2.285000,0.307800,
2025-10-16T06:29:51.653103+00:00,2.290000,0.300200,
2025-10-16T06:29:51.658103+00:00,2.295000,0.289180,
2025-10-16T06:29:51.663103+00:00,2.300000,0.273220,
2025-10-16T06:29:51.668103+00:00,2.305000,0.258020,
2025-10-16T06:29:51.673103+00:00,2.310000,0.243960,
2025-10-16T06:29:51.678103+00:00,2.315000,0.229140,
2025-10-16T06:29:51.683103+00:00,2.320000,0.213180,
2025-10-16T06:29:51.688103+00:00,2.325000,0.204440,
2025-10-16T06:29:51.693103+00:00,2.330000,0.210520,
2025-10-16T06:29:51.698103+00:00,2.335000,0.226100,
2025-10-16T06:29:51.703103+00:00,2.340000,0.242060,
2025-10-16T06:29:51.708103+00:00,2.345000,0.253460,
2025-10-16T06:29:51.713103+00:00,2.350000,0.255740,
2025-10-16T06:29:51.718103+00:00,2.355000,0.248520,
2025-10-16T06:29:51.723103+00:00,2.360000,0.238640,
2025-10-16T06:29:51.728103+00:00,2.365000,0.231420,
2025-10-16T06:29:51.733103+00:00,2.370000,0.230280,
2025-10-16T06:29:51.738103+00:00,2.375000,0.236360,
2025-10-16T06:29:51.743103+00:00,2.380000,0.239400,
2025-10-16T06:29:51.748103+00:00,2.385000,0.240540,
2025-10-16T06:29:51.753103+00:00,2.390000,0.239400,
2025-10-16T06:29:51.758103+00:00,2.395000,0.235980,
2025-10-16T06:29:51.763103+00:00,2.400000,0.226480,
2025-10-16T06:29:51.768103+00:00,2.405000,0.213940,
2025-10-16T06:29:51.773103+00:00,2.410000,0.205580,
2025-10-16T06:29:51.778103+00:00,2.415000,0.202160,
2025-10-16T06:29:51.783103+00:00,2.420000,0.197600,
2025-10-16T06:29:51.788103+00:00,2.425000,0.190000,
2025-10-16T06:29:51.793103+00:00,2.430000,0.178220,
2025-10-16T06:29:51.798103+00:00,2.435000,0.165300,
2025-10-16T06:29:51.803103+00:00,2.440000,0.155420,
2025-10-16T06:29:51.808103+00:00,2.445000,0.148200,
2025-10-16T06:29:51.813103+00:00,2.450000,0.144400,
2025-10-16T06:29:51.818103+00:00,2.455000,0.142880,
2025-10-16T06:29:51.823103+00:00,2.460000,0.146680,
2025-10-16T06:29:51.828103+00:00,2.465000,0.148960,
2025-10-16T06:29:51.833103+00:00,2.470000,0.145160,
2025-10-16T06:29:51.838103+00:00,2.475000,0.133380,
2025-10-16T06:29:51.843103+00:00,2.480000,0.125780,
2025-10-16T06:29:51.848103+00:00,2.485000,0.127300,
2025-10-16T06:29:51.853103+00:00,2.490000,0.137180,
2025-10-16T06:29:51.858103+00:00,2.495000,0.144020,
2025-10-16T06:29:51.863103+00:00,2.500000,0.145540,
2025-10-16T06:29:51.868103+00:00,2.505000,0.144400,
2025-10-16T06:29:51.873103+00:00,2.510000,0.142500,
2025-10-16T06:29:51.878103+00:00,2.515000,0.139080,
2025-10-16T06:29:51.883103+00:00,2.520000,0.133760,
2025-10-16T06:29:51.888103+00:00,2.525000,0.130720,
2025-10-16T06:29:51.893103+00:00,2.530000,0.129200,
2025-10-16T06:29:51.898103+00:00,2.535000,0.136040,
2025-10-16T06:29:51.903103+00:00,2.540000,0.148960,
2025-10-16T06:29:51.908103+00:00,2.545000,0.159220,
2025-10-16T06:29:51.913103+00:00,2.550000,0.156940,
2025-10-16T06:29:51.918103+00:00,2.555000,0.145920,
2025-10-16T06:29:51.923103+00:00,2.560000,0.135660,
2025-10-16T06:29:51.928103+00:00,2.565000,0.130340,
2025-10-16T06:29:51.933103+00:00,2.570000,0.124260,
2025-10-16T06:29:51.938103+00:00,2.575000,0.109060,
2025-10-16T06:29:51.943103+00:00,2.580000,0.093860,
2025-10-16T06:29:51.948103+00:00,2.585000,0.088160,
2025-10-16T06:29:51.953103+00:00,2.590000,0.089300,
2025-10-16T06:29:51.958103+00:00,2.595000,0.090440,
2025-10-16T06:29:51.963103+00:00,2.600000,0.089680,
2025-10-16T06:29:51.968103+00:00,2.605000,0.088540,
2025-10-16T06:29:51.973103+00:00,2.610000,0.087400,
2025-10-16T06:29:51.978103+00:00,2.615000,0.085500,
2025-10-16T06:29:51.983103+00:00,2.620000,0.080940,
2025-10-16T06:29:51.988103+00:00,2.625000,0.077900,
2025-10-16T06:29:51.993103+00:00,2.630000,0.077520,
2025-10-16T06:29:51.998103+00:00,2.635000,0.077900,
2025-10-16T06:29:52.003103+00:00,2.640000,0.074480,
2025-10-16T06:29:52.008103+00:00,2.645000,0.068400,
2025-10-16T06:29:52.013103+00:00,2.650000,0.064600,
2025-10-16T06:29:52.018103+00:00,2.655000,0.066880,
2025-10-16T06:29:52.023103+00:00,2.660000,0.069540,
2025-10-16T06:29:52.028103+00:00,2.665000,0.070680,
2025-10-16T06:29:52.033103+00:00,2.670000,0.069540,
2025-10-16T06:29:52.038103+00:00,2.675000,0.069920,
2025-10-16T06:29:52.043103+00:00,2.680000,0.071060,
2025-10-16T06:29:52.048103+00:00,2.685000,0.073720,
2025-10-16T06:29:52.053103+00:00,2.690000,0.072580,
2025-10-16T06:29:52.058103+00:00,2.695000,0.075620,
2025-10-16T06:29:52.063103+00:00,2.700000,0.080940,
2025-10-16T06:29:52.068103+00:00,2.705000,0.084360,
2025-10-16T06:29:52.073103+00:00,2.710000,0.086260,
2025-10-16T06:29:52.078103+00:00,2.715000,0.088920,
2025-10-16T06:29:52.083103+00:00,2.720000,0.096520,
2025-10-16T06:29:52.088103+00:00,2.725000,0.106020,
2025-10-16T06:29:52.093103+00:00,2.730000,0.109820,
2025-10-16T06:29:52.098103+00:00,2.735000,0.110200,
2025-10-16T06:29:52.103103+00:00,2.740000,0.105260,
2025-10-16T06:29:52.108103+00:00,2.745000,0.100320,
2025-10-16T06:29:52.113103+00:00,2.750000,0.096900,
2025-10-16T06:29:52.118103+00:00,2.755000,0.098040,
2025-10-16T06:29:52.123103+00:00,2.760000,0.101080,
2025-10-16T06:29:52.128103+00:00,2.765000,0.101080,
2025-10-16T06:29:52.133103+00:00,2.770000,0.091200,
2025-10-16T06:29:52.138103+00:00,2.775000,0.080180,
2025-10-16T06:29:52.143103+00:00,2.780000,0.070300,
2025-10-16T06:29:52.148103+00:00,2.785000,0.063080,
2025-10-16T06:29:52.153103+00:00,2.790000,0.052820,
2025-10-16T06:29:52.158103+00:00,2.795000,0.037620,
2025-10-16T06:29:52.163103+00:00,2.800000,0.023560,
2025-10-16T06:29:52.168103+00:00,2.805000,0.014440,
2025-10-16T06:29:52.173103+00:00,2.810000,0.009120,
2025-10-16T06:29:52.178103+00:00,2.815000,0.004180,
2025-10-16T06:29:52.183103+00:00,2.820000,0.001140,
2025-10-16T06:29:52.188103+00:00,2.825000,0.004560,
2025-10-16T06:29:52.193103+00:00,2.830000,0.009120,
2025-10-16T06:29:52.198103+00:00,2.835000,0.006080,
2025-10-16T06:29:52.203103+00:00,2.840000,-0.004180,
2025-10-16T06:29:52.208103+00:00,2.845000,-0.009880,
2025-10-16T06:29:52.213103+00:00,2.850000,-0.009120,
2025-10-16T06:29:52.218103+00:00,2.855000,-0.009880,
2025-10-16T06:29:52.223103+00:00,2.860000,-0.014440,
2025-10-16T06:29:52.228103+00:00,2.865000,-0.019380,
2025-10-16T06:29:52.233103+00:00,2.870000,-0.018620,
2025-10-16T06:29:52.238103+00:00,2.875000,-0.014440,
2025-10-16T06:29:52.243103+00:00,2.880000,-0.015200,
2025-10-16T06:29:52.248103+00:00,2.885000,-0.017860,
2025-10-16T06:29:52.253103+00:00,2.890000,-0.017480,
2025-10-16T06:29:52.258103+00:00,2.895000,-0.015200,
2025-10-16T06:29:52.263103+00:00,2.900000,-0.015960,
2025-10-16T06:29:52.268103+00:00,2.905000,-0.017860,
2025-10-16T06:29:52.273103+00:00,2.910000,-0.017480,
2025-10-16T06:29:52.278103+00:00,2.915000,-0.013680,
2025-10-16T06:29:52.283103+00:00,2.920000,-0.009880,
2025-10-16T06:29:52.288103+00:00,2.925000,-0.011400,
2025-10-16T06:29:52.293103+00:00,2.930000,-0.019000,
2025-10-16T06:29:52.298103+00:00,2.935000,-0.022420,
2025-10-16T06:29:52.303103+00:00,2.940000,-0.017860,
2025-10-16T06:29:52.308103+00:00,2.945000,-0.006080,
2025-10-16T06:29:52.313103+00:00,2.950000,0.002660,
2025-10-16T06:29:52.318103+00:00,2.955000,0.005700,
2025-10-16T06:29:52.323103+00:00,2.960000,0.006460,
2025-10-16T06:29:52.328103+00:00,2.965000,0.006840,
2025-10-16T06:29:52.333103+00:00,2.970000,0.008360,
2025-10-16T06:29:52.338103+00:00,2.975000,0.006460,
2025-10-16T06:29:52.343103+00:00,2.980000,0.002280,
2025-10-16T06:29:52.348103+00:00,2.985000,-0.002660,
2025-10-16T06:29:52.353103+00:00,2.990000,-0.005700,
2025-10-16T06:29:52.358103+00:00,2.995000,-0.009120,
2025-10-16T06:29:52.363103+00:00,3.000000,-0.012160,
2025-10-16T06:29:52.368103+00:00,3.005000,-0.016720,
2025-10-16T06:29:52.373103+00:00,3.010000,-0.019760,
2025-10-16T06:29:52.378103+00:00,3.015000,-0.017860,
2025-10-16T06:29:52.383103+00:00,3.020000,-0.008740,
2025-10-16T06:29:52.388103+00:00,3.025000,-0.001520,
2025-10-16T06:29:52.393103+00:00,3.030000,-0.001140,
2025-10-16T06:29:52.398103+00:00,3.035000,-0.007220,
2025-10-16T06:29:52.403103+00:00,3.040000,-0.012160,
2025-10-16T06:29:52.408103+00:00,3.045000,-0.014440,
2025-10-16T06:29:52.413103+00:00,3.050000,-0.014440,
2025-10-16T06:29:52.418103+00:00,3.055000,-0.017100,
2025-10-16T06:29:52.423103+00:00,3.060000,-0.019380,
2025-10-16T06:29:52.428103+00:00,3.065000,-0.023180,
2025-10-16T06:29:52.433103+00:00,3.070000,-0.025460,
2025-10-16T06:29:52.438103+00:00,3.075000,-0.027360,
2025-10-16T06:29:52.443103+00:00,3.080000,-0.026600,
2025-10-16T06:29:52.448103+00:00,3.085000,-0.025080,
2025-10-16T06:29:52.453103+00:00,3.090000,-0.024320,
2025-10-16T06:29:52.458103+00:00,3.095000,-0.025840,
2025-10-16T06:29:52.463103+00:00,3.100000,-0.026220,
2025-10-16T06:29:52.468103+00:00,3.105000,-0.023940,
2025-10-16T06:29:52.473103+00:00,3.110000,-0.019760,
2025-10-16T06:29:52.478103+00:00,3.115000,-0.016720,
2025-10-16T06:29:52.483103+00:00,3.120000,-0.019000,
2025-10-16T06:29:52.488103+00:00,3.125000,-0.022800,
2025-10-16T06:29:52.493103+00:00,3.130000,-0.022800,
2025-10-16T06:29:52.498103+00:00,3.135000,-0.016720,
2025-10-16T06:29:52.503103+00:00,3.140000,-0.006080,
2025-10-16T06:29:52.508103+00:00,3.145000,-0.000380,
2025-10-16T06:29:52.513103+00:00,3.150000,-0.003420,
2025-10-16T06:29:52.518103+00:00,3.155000,-0.009120,
2025-10-16T06:29:52.523103+00:00,3.160000,-0.011020,
2025-10-16T06:29:52.528103+00:00,3.165000,-0.009500,
2025-10-16T06:29:52.533103+00:00,3.170000,-0.009120,
2025-10-16T06:29:52.538103+00:00,3.175000,-0.013680,
2025-10-16T06:29:52.543103+00:00,3.180000,-0.019760,
2025-10-16T06:29:52.548103+00:00,3.185000,-0.021280,
2025-10-16T06:29:52.553103+00:00,3.190000,-0.017860,
2025-10-16T06:29:52.558103+00:00,3.195000,-0.014060,
2025-10-16T06:29:52.563103+00:00,3.200000,-0.012160,
2025-10-16T06:29:52.568103+00:00,3.205000,-0.012920,
2025-10-16T06:29:52.573103+00:00,3.210000,-0.014820,
2025-10-16T06:29:52.578103+00:00,3.215000,-0.019000,
2025-10-16T06:29:52.583103+00:00,3.220000,-0.024700,
2025-10-16T06:29:52.588103+00:00,3.225000,-0.029260,
2025-10-16T06:29:52.593103+00:00,3.230000,-0.029260,
2025-10-16T06:29:52.598103+00:00,3.235000,-0.028500,
2025-10-16T06:29:52.603103+00:00,3.240000,-0.031160,
2025-10-16T06:29:52.608103+00:00,3.245000,-0.036480,
2025-10-16T06:29:52.613103+00:00,3.250000,-0.040660,
2025-10-16T06:29:52.618103+00:00,3.255000,-0.041420,
2025-10-16T06:29:52.623103+00:00,3.260000,-0.040660,
2025-10-16T06:29:52.628103+00:00,3.265000,-0.036860,
2025-10-16T06:29:52.633103+00:00,3.270000,-0.034580,
2025-10-16T06:29:52.638103+00:00,3.275000,-0.031540,
2025-10-16T06:29:52.643103+00:00,3.280000,-0.029640,
2025-10-16T06:29:52.648103+00:00,3.285000,-0.024700,
2025-10-16T06:29:52.653103+00:00,3.290000,-0.018240,
2025-10-16T06:29:52.658103+00:00,3.295000,-0.015200,
2025-10-16T06:29:52.663103+00:00,3.300000,-0.019380,
2025-10-16T06:29:52.668103+00:00,3.305000,-0.022040,
2025-10-16T06:29:52.673103+00:00,3.310000,-0.020520,
2025-10-16T06:29:52.678103+00:00,3.315000,-0.014820,
2025-10-16T06:29:52.683103+00:00,3.320000,-0.013680,
2025-10-16T06:29:52.688103+00:00,3.325000,-0.015200,
2025-10-16T06:29:52.693103+00:00,3.330000,-0.021280,
2025-10-16T06:29:52.698103+00:00,3.335000,-0.023180,
2025-10-16T06:29:52.703103+00:00,3.340000,-0.023940,
2025-10-16T06:29:52.708103+00:00,3.345000,-0.024320,
2025-10-16T06:29:52.713103+00:00,3.350000,-0.024700,
2025-10-16T06:29:52.718103+00:00,3.355000,-0.025080,
2025-10-16T06:29:52.723103+00:00,3.360000,-0.026220,
2025-10-16T06:29:52.728103+00:00,3.365000,-0.026600,
2025-10-16T06:29:52.733103+00:00,3.370000,-0.025460,
2025-10-16T06:29:52.738103+00:00,3.375000,-0.022420,
2025-10-16T06:29:52.743103+00:00,3.380000,-0.020520,
2025-10-16T06:29:52.748103+00:00,3.385000,-0.021280,
2025-10-16T06:29:52.753103+00:00,3.390000,-0.024700,
2025-10-16T06:29:52.758103+00:00,3.395000,-0.027360,
2025-10-16T06:29:52.763103+00:00,3.400000,-0.025840,
2025-10-16T06:29:52.768103+00:00,3.405000,-0.020520,
2025-10-16T06:29:52.773103+00:00,3.410000,-0.017860,
2025-10-16T06:29:52.778103+00:00,3.415000,-0.017860,
2025-10-16T06:29:52.783103+00:00,3.420000,-0.019000,
2025-10-16T06:29:52.788103+00:00,3.425000,-0.017480,
2025-10-16T06:29:52.793103+00:00,3.430000,-0.014820,
2025-10-16T06:29:52.798103+00:00,3.435000,-0.018620,
2025-10-16T06:29:52.803103+00:00,3.440000,-0.026220,
2025-10-16T06:29:52.808103+00:00,3.445000,-0.026980,
2025-10-16T06:29:52.813103+00:00,3.450000,-0.020140,
2025-10-16T06:29:52.818103+00:00,3.455000,-0.017860,
2025-10-16T06:29:52.823103+00:00,3.460000,-0.024700,
2025-10-16T06:29:52.828103+00:00,3.465000,-0.032680,
2025-10-16T06:29:52.833103+00:00,3.470000,-0.033820,
2025-10-16T06:29:52.838103+00:00,3.475000,-0.028120,
2025-10-16T06:29:52.843103+00:00,3.480000,-0.022420,
2025-10-16T06:29:52.848103+00:00,3.485000,-0.021280,
2025-10-16T06:29:52.853103+00:00,3.490000,-0.021660,
2025-10-16T06:29:52.858103+00:00,3.495000,-0.021280,
2025-10-16T06:29:52.863103+00:00,3.500000,-0.022420,
2025-10-16T06:29:52.868103+00:00,3.505000,-0.021660,
2025-10-16T06:29:52.873103+00:00,3.510000,-0.017860,
2025-10-16T06:29:52.878103+00:00,3.515000,-0.010260,
2025-10-16T06:29:52.883103+00:00,3.520000,-0.008360,
2025-10-16T06:29:52.888103+00:00,3.525000,-0.013300,
2025-10-16T06:29:52.893103+00:00,3.530000,-0.021660,
2025-10-16T06:29:52.898103+00:00,3.535000,-0.025080,
2025-10-16T06:29:52.903103+00:00,3.540000,-0.021280,
2025-10-16T06:29:52.908103+00:00,3.545000,-0.017860,
2025-10-16T06:29:52.913103+00:00,3.550000,-0.019000,
2025-10-16T06:29:52.918103+00:00,3.555000,-0.022420,
2025-10-16T06:29:52.923103+00:00,3.560000,-0.020520,
2025-10-16T06:29:52.928103+00:00,3.565000,-0.015200,
2025-10-16T06:29:52.933103+00:00,3.570000,-0.010260,
2025-10-16T06:29:52.938103+00:00,3.575000,-0.011020,
2025-10-16T06:29:52.943103+00:00,3.580000,-0.011780,
2025-10-16T06:29:52.948103+00:00,3.585000,-0.009500,
2025-10-16T06:29:52.953103+00:00,3.590000,-0.001900,
2025-10-16T06:29:52.958103+00:00,3.595000,0.004180,
2025-10-16T06:29:52.963103+00:00,3.600000,0.004180,
2025-10-16T06:29:52.968103+00:00,3.605000,-0.000380,
2025-10-16T06:29:52.973103+00:00,3.610000,-0.005320,
2025-10-16T06:29:52.978103+00:00,3.615000,-0.011400,
2025-10-16T06:29:52.983103+00:00,3.620000,-0.018240,
2025-10-16T06:29:52.988103+00:00,3.625000,-0.027740,
2025-10-16T06:29:52.993103+00:00,3.630000,-0.035720,
2025-10-16T06:29:52.998103+00:00,3.635000,-0.041420,
2025-10-16T06:29:53.003103+00:00,3.640000,-0.041800,
2025-10-16T06:29:53.008103+00:00,3.645000,-0.041040,
2025-10-16T06:29:53.013103+00:00,3.650000,-0.038760,
2025-10-16T06:29:53.018103+00:00,3.655000,-0.040280,
2025-10-16T06:29:53.023103+00:00,3.660000,-0.042180,
2025-10-16T06:29:53.028103+00:00,3.665000,-0.044080,
2025-10-16T06:29:53.033103+00:00,3.670000,-0.042940,
2025-10-16T06:29:53.038103+00:00,3.675000,-0.038380,
2025-10-16T06:29:53.043103+00:00,3.680000,-0.032300,
2025-10-16T06:29:53.048103+00:00,3.685000,-0.028500,
2025-10-16T06:29:53.053103+00:00,3.690000,-0.025840,
2025-10-16T06:29:53.058103+00:00,3.695000,-0.027360,
2025-10-16T06:29:53.063103+00:00,3.700000,-0.028500,
2025-10-16T06:29:53.068103+00:00,3.705000,-0.030400,
2025-10-16T06:29:53.073103+00:00,3.710000,-0.033820,
2025-10-16T06:29:53.078103+00:00,3.715000,-0.037240,
2025-10-16T06:29:53.083103+00:00,3.720000,-0.037240,
2025-10-16T06:29:53.088103+00:00,3.725000,-0.033820,
2025-10-16T06:29:53.093103+00:00,3.730000,-0.028500,
2025-10-16T06:29:53.098103+00:00,3.735000,-0.025460,
2025-10-16T06:29:53.103103+00:00,3.740000,-0.022800,
2025-10-16T06:29:53.108103+00:00,3.745000,-0.019380,
2025-10-16T06:29:53.113103+00:00,3.750000,-0.016340,
2025-10-16T06:29:53.118103+00:00,3.755000,-0.018240,
2025-10-16T06:29:53.123103+00:00,3.760000,-0.022800,
2025-10-16T06:29:53.128103+00:00,3.765000,-0.026220,
2025-10-16T06:29:53.133103+00:00,3.770000,-0.023180,
2025-10-16T06:29:53.138103+00:00,3.775000,-0.017480,
2025-10-16T06:29:53.143103+00:00,3.780000,-0.015580,
2025-10-16T06:29:53.148103+00:00,3.785000,-0.018240,
2025-10-16T06:29:53.153103+00:00,3.790000,-0.020520,
2025-10-16T06:29:53.158103+00:00,3.795000,-0.019760,
2025-10-16T06:29:53.163103+00:00,3.800000,-0.019000,
2025-10-16T06:29:53.168103+00:00,3.805000,-0.019380,
2025-10-16T06:29:53.173103+00:00,3.810000,-0.020900,
2025-10-16T06:29:53.178103+00:00,3.815000,-0.020900,
2025-10-16T06:29:53.183103+00:00,3.820000,-0.019760,
2025-10-16T06:29:53.188103+00:00,3.825000,-0.017480,
2025-10-16T06:29:53.193103+00:00,3.830000,-0.014820,
2025-10-16T06:29:53.198103+00:00,3.835000,-0.016340,
2025-10-16T06:29:53.203103+00:00,3.840000,-0.017860,
2025-10-16T06:29:53.208103+00:00,3.845000,-0.020520,
2025-10-16T06:29:53.213103+00:00,3.850000,-0.020900,
2025-10-16T06:29:53.218103+00:00,3.855000,-0.020520,
2025-10-16T06:29:53.223103+00:00,3.860000,-0.024700,
2025-10-16T06:29:53.228103+00:00,3.865000,-0.029640,
2025-10-16T06:29:53.233103+00:00,3.870000,-0.030400,
2025-10-16T06:29:53.238103+00:00,3.875000,-0.030780,
2025-10-16T06:29:53.243103+00:00,3.880000,-0.030400,
2025-10-16T06:29:53.248103+00:00,3.885000,-0.028880,
2025-10-16T06:29:53.253103+00:00,3.890000,-0.026600,
2025-10-16T06:29:53.258103+00:00,3.895000,-0.026220,
2025-10-16T06:29:53.263103+00:00,3.900000,-0.024320,
2025-10-16T06:29:53.268103+00:00,3.905000,-0.023940,
2025-10-16T06:29:53.273103+00:00,3.910000,-0.021280,
2025-10-16T06:29:53.278103+00:00,3.915000,-0.019000,
2025-10-16T06:29:53.283103+00:00,3.920000,-0.019000,
2025-10-16T06:29:53.288103+00:00,3.925000,-0.023180,
2025-10-16T06:29:53.293103+00:00,3.930000,-0.027360,
2025-10-16T06:29:53.298103+00:00,3.935000,-0.028500,
2025-10-16T06:29:53.303103+00:00,3.940000,-0.028120,
2025-10-16T06:29:53.308103+00:00,3.945000,-0.027360,
2025-10-16T06:29:53.313103+00:00,3.950000,-0.027360,
2025-10-16T06:29:53.318103+00:00,3.955000,-0.029260,
2025-10-16T06:29:53.323103+00:00,3.960000,-0.028880,
2025-10-16T06:29:53.328103+00:00,3.965000,-0.027740,
2025-10-16T06:29:53.333103+00:00,3.970000,-0.026600,
2025-10-16T06:29:53.338103+00:00,3.975000,-0.026600,
2025-10-16T06:29:53.343103+00:00,3.980000,-0.026980,
2025-10-16T06:29:53.348103+00:00,3.985000,-0.027360,
2025-10-16T06:29:53.353103+00:00,3.990000,-0.029640,
2025-10-16T06:29:53.358103+00:00,3.995000,-0.032680,
2025-10-16T06:29:53.363103+00:00,4.000000,-0.034960,
2025-10-16T06:29:53.368103+00:00,4.005000,-0.033820,
2025-10-16T06:29:53.373103+00:00,4.010000,-0.030020,
2025-10-16T06:29:53.378103+00:00,4.015000,-0.027360,
2025-10-16T06:29:53.383103+00:00,4.020000,-0.024700,
2025-10-16T06:29:53.388103+00:00,4.025000,-0.024320,
2025-10-16T06:29:53.393103+00:00,4.030000,-0.024700,
2025-10-16T06:29:53.398103+00:00,4.035000,-0.026980,
2025-10-16T06:29:53.403103+00:00,4.040000,-0.026600,
2025-10-16T06:29:53.408103+00:00,4.045000,-0.023180,
2025-10-16T06:29:53.413103+00:00,4.050000,-0.021660,
2025-10-16T06:29:53.418103+00:00,4.055000,-0.025840,
2025-10-16T06:29:53.423103+00:00,4.060000,-0.033060,
2025-10-16T06:29:53.428103+00:00,4.065000,-0.036860,
2025-10-16T06:29:53.433103+00:00,4.070000,-0.032680,
2025-10-16T06:29:53.438103+00:00,4.075000,-0.025460,
2025-10-16T06:29:53.443103+00:00,4.080000,-0.023180,
2025-10-16T06:29:53.448103+00:00,4.085000,-0.027360,
2025-10-16T06:29:53.453103+00:00,4.090000,-0.031920,
2025-10-16T06:29:53.458103+00:00,4.095000,-0.032680,
2025-10-16T06:29:53.463103+00:00,4.100000,-0.030780,
2025-10-16T06:29:53.468103+00:00,4.105000,-0.032300,
2025-10-16T06:29:53.473103+00:00,4.110000,-0.034960,
2025-10-16T06:29:53.478103+00:00,4.115000,-0.037620,
2025-10-16T06:29:53.483103+00:00,4.120000,-0.039900,
2025-10-16T06:29:53.488103+00:00,4.125000,-0.039520,
2025-10-16T06:29:53.493103+00:00,4.130000,-0.036480,
2025-10-16T06:29:53.498103+00:00,4.135000,-0.027740,
2025-10-16T06:29:53.503103+00:00,4.140000,-0.023180,
2025-10-16T06:29:53.508103+00:00,4.145000,-0.025460,
2025-10-16T06:29:53.513103+00:00,4.150000,-0.035340,
2025-10-16T06:29:53.518103+00:00,4.155000,-0.043700,
2025-10-16T06:29:53.523103+00:00,4.160000,-0.047120,
2025-10-16T06:29:53.528103+00:00,4.165000,-0.048640,
2025-10-16T06:29:53.533103+00:00,4.170000,-0.048260,
2025-10-16T06:29:53.538103+00:00,4.175000,-0.044840,
2025-10-16T06:29:53.543103+00:00,4.180000,-0.039520,
2025-10-16T06:29:53.548103+00:00,4.185000,-0.034580,
2025-10-16T06:29:53.553103+00:00,4.190000,-0.035340,
2025-10-16T06:29:53.558103+00:00,4.195000,-0.038000,
2025-10-16T06:29:53.563103+00:00,4.200000,-0.037620,
2025-10-16T06:29:53.568103+00:00,4.205000,-0.034200,
2025-10-16T06:29:53.573103+00:00,4.210000,-0.030020,
2025-10-16T06:29:53.578103+00:00,4.215000,-0.029260,
2025-10-16T06:29:53.583103+00:00,4.220000,-0.028500,
2025-10-16T06:29:53.588103+00:00,4.225000,-0.029260,
2025-10-16T06:29:53.593103+00:00,4.230000,-0.031540,
2025-10-16T06:29:53.598103+00:00,4.235000,-0.034960,
2025-10-16T06:29:53.603103+00:00,4.240000,-0.037240,
2025-10-16T06:29:53.608103+00:00,4.245000,-0.036100,
2025-10-16T06:29:53.613103+00:00,4.250000,-0.031540,
2025-10-16T06:29:53.618103+00:00,4.255000,-0.028880,
2025-10-16T06:29:53.623103+00:00,4.260000,-0.027360,
2025-10-16T06:29:53.628103+00:00,4.265000,-0.026220,
2025-10-16T06:29:53.633103+00:00,4.270000,-0.025080,
2025-10-16T06:29:53.638103+00:00,4.275000,-0.026220,
2025-10-16T06:29:53.643103+00:00,4.280000,-0.030400,
2025-10-16T06:29:53.648103+00:00,4.285000,-0.030780,
2025-10-16T06:29:53.653103+00:00,4.290000,-0.030400,
2025-10-16T06:29:53.658103+00:00,4.295000,-0.028500,
2025-10-16T06:29:53.663103+00:00,4.300000,-0.027740,
2025-10-16T06:29:53.668103+00:00,4.305000,-0.028120,
2025-10-16T06:29:53.673103+00:00,4.310000,-0.030020,
2025-10-16T06:29:53.678103+00:00,4.315000,-0.032680,
2025-10-16T06:29:53.683103+00:00,4.320000,-0.035720,
2025-10-16T06:29:53.688103+00:00,4.325000,-0.035340,
2025-10-16T06:29:53.693103+00:00,4.330000,-0.034960,
2025-10-16T06:29:53.698103+00:00,4.335000,-0.032680,
2025-10-16T06:29:53.703103+00:00,4.340000,-0.031540,
2025-10-16T06:29:53.708103+00:00,4.345000,-0.029640,
2025-10-16T06:29:53.713103+00:00,4.350000,-0.025840,
2025-10-16T06:29:53.718103+00:00,4.355000,-0.020520,
2025-10-16T06:29:53.723103+00:00,4.360000,-0.021280,
2025-10-16T06:29:53.728103+00:00,4.365000,-0.024700,
2025-10-16T06:29:53.733103+00:00,4.370000,-0.026220,
2025-10-16T06:29:53.738103+00:00,4.375000,-0.024320,
2025-10-16T06:29:53.743103+00:00,4.380000,-0.022420,
2025-10-16T06:29:53.748103+00:00,4.385000,-0.020900,
2025-10-16T06:29:53.753103+00:00,4.390000,-0.020520,
2025-10-16T06:29:53.758103+00:00,4.395000,-0.018240,
2025-10-16T06:29:53.763103+00:00,4.400000,-0.017860,
2025-10-16T06:29:53.768103+00:00,4.405000,-0.021280,
2025-10-16T06:29:53.773103+00:00,4.410000,-0.026980,
2025-10-16T06:29:53.778103+00:00,4.415000,-0.030020,
2025-10-16T06:29:53.783103+00:00,4.420000,-0.029640,
2025-10-16T06:29:53.788103+00:00,4.425000,-0.025840,
2025-10-16T06:29:53.793103+00:00,4.430000,-0.024700,
2025-10-16T06:29:53.798103+00:00,4.435000,-0.025460,
2025-10-16T06:29:53.803103+00:00,4.440000,-0.025460,
2025-10-16T06:29:53.808103+00:00,4.445000,-0.020900,
2025-10-16T06:29:53.813103+00:00,4.450000,-0.017480,
2025-10-16T06:29:53.818103+00:00,4.455000,-0.016340,
2025-10-16T06:29:53.823103+00:00,4.460000,-0.020900,
2025-10-16T06:29:53.828103+00:00,4.465000,-0.024700,
2025-10-16T06:29:53.833103+00:00,4.470000,-0.025460,
2025-10-16T06:29:53.838103+00:00,4.475000,-0.022040,
2025-10-16T06:29:53.843103+00:00,4.480000,-0.020520,
2025-10-16T06:29:53.848103+00:00,4.485000,-0.020520,
2025-10-16T06:29:53.853103+00:00,4.490000,-0.021280,
2025-10-16T06:29:53.858103+00:00,4.495000,-0.020520,
2025-10-16T06:29:53.863103+00:00,4.500000,-0.018240,
2025-10-16T06:29:53.868103+00:00,4.505000,-0.014820,
2025-10-16T06:29:53.873103+00:00,4.510000,-0.012160,
2025-10-16T06:29:53.878103+00:00,4.515000,-0.009880,
2025-10-16T06:29:53.883103+00:00,4.520000,-0.009120,
2025-10-16T06:29:53.888103+00:00,4.525000,-0.012540,
2025-10-16T06:29:53.893103+00:00,4.530000,-0.017860,
2025-10-16T06:29:53.898103+00:00,4.535000,-0.023940,
2025-10-16T06:29:53.903103+00:00,4.540000,-0.026980,
2025-10-16T06:29:53.908103+00:00,4.545000,-0.027740,
2025-10-16T06:29:53.913103+00:00,4.550000,-0.026220,
2025-10-16T06:29:53.918103+00:00,4.555000,-0.028880,
2025-10-16T06:29:53.923103+00:00,4.560000,-0.032680,
2025-10-16T06:29:53.928103+00:00,4.565000,-0.033060,
2025-10-16T06:29:53.933103+00:00,4.570000,-0.031160,
2025-10-16T06:29:53.938103+00:00,4.575000,-0.027740,
2025-10-16T06:29:53.943103+00:00,4.580000,-0.023560,
2025-10-16T06:29:53.948103+00:00,4.585000,-0.019000,
2025-10-16T06:29:53.953103+00:00,4.590000,-0.012160,
2025-10-16T06:29:53.958103+00:00,4.595000,-0.006840,
2025-10-16T06:29:53.963103+00:00,4.600000,-0.004940,
2025-10-16T06:29:53.968103+00:00,4.605000,-0.007600,
2025-10-16T06:29:53.973103+00:00,4.610000,-0.012540,
2025-10-16T06:29:53.978103+00:00,4.615000,-0.018240,
2025-10-16T06:29:53.983103+00:00,4.620000,-0.024700,
2025-10-16T06:29:53.988103+00:00,4.625000,-0.030400,
2025-10-16T06:29:53.993103+00:00,4.630000,-0.033060,
2025-10-16T06:29:53.998103+00:00,4.635000,-0.033820,
2025-10-16T06:29:54.003103+00:00,4.640000,-0.034200,
2025-10-16T06:29:54.008103+00:00,4.645000,-0.034200,
2025-10-16T06:29:54.013103+00:00,4.650000,-0.031540,
2025-10-16T06:29:54.018103+00:00,4.655000,-0.030400,
2025-10-16T06:29:54.023103+00:00,4.660000,-0.031160,
2025-10-16T06:29:54.028103+00:00,4.665000,-0.033820,
2025-10-16T06:29:54.033103+00:00,4.670000,-0.033440,
2025-10-16T06:29:54.038103+00:00,4.675000,-0.032300,
2025-10-16T06:29:54.043103+00:00,4.680000,-0.033440,
2025-10-16T06:29:54.048103+00:00,4.685000,-0.037240,
2025-10-16T06:29:54.053103+00:00,4.690000,-0.040660,
2025-10-16T06:29:54.058103+00:00,4.695000,-0.042180,
2025-10-16T06:29:54.063103+00:00,4.700000,-0.041420,
2025-10-16T06:29:54.068103+00:00,4.705000,-0.041040,
2025-10-16T06:29:54.073103+00:00,4.710000,-0.043320,
2025-10-16T06:29:54.078103+00:00,4.715000,-0.047120,
2025-10-16T06:29:54.083103+00:00,4.720000,-0.049400,
2025-10-16T06:29:54.088103+00:00,4.725000,-0.049780,
2025-10-16T06:29:54.093103+00:00,4.730000,-0.049020,
2025-10-16T06:29:54.098103+00:00,4.735000,-0.047500,
2025-10-16T06:29:54.103103+00:00,4.740000,-0.044080,
2025-10-16T06:29:54.108103+00:00,4.745000,-0.041800,
2025-10-16T06:29:54.113103+00:00,4.750000,-0.040280,
2025-10-16T06:29:54.118103+00:00,4.755000,-0.041040,
2025-10-16T06:29:54.123103+00:00,4.760000,-0.045220,
2025-10-16T06:29:54.128103+00:00,4.765000,-0.048640,
2025-10-16T06:29:54.133103+00:00,4.770000,-0.050160,
2025-10-16T06:29:54.138103+00:00,4.775000,-0.047880,
2025-10-16T06:29:54.143103+00:00,4.780000,-0.047120,
2025-10-16T06:29:54.148103+00:00,4.785000,-0.047120,
2025-10-16T06:29:54.153103+00:00,4.790000,-0.047880,
2025-10-16T06:29:54.158103+00:00,4.795000,-0.047500,
2025-10-16T06:29:54.163103+00:00,4.800000,-0.046740,
2025-10-16T06:29:54.168103+00:00,4.805000,-0.046740,
2025-10-16T06:29:54.173103+00:00,4.810000,-0.049780,
2025-10-16T06:29:54.178103+00:00,4.815000,-0.051680,
2025-10-16T06:29:54.183103+00:00,4.820000,-0.053580,
2025-10-16T06:29:54.188103+00:00,4.825000,-0.055860,
2025-10-16T06:29:54.193103+00:00,4.830000,-0.057380,
2025-10-16T06:29:54.198103+00:00,4.835000,-0.057000,
2025-10-16T06:29:54.203103+00:00,4.840000,-0.052820,
2025-10-16T06:29:54.208103+00:00,4.845000,-0.045220,
2025-10-16T06:29:54.213103+00:00,4.850000,-0.040280,
2025-10-16T06:29:54.218103+00:00,4.855000,-0.033820,
2025-10-16T06:29:54.223103+00:00,4.860000,-0.029260,
2025-10-16T06:29:54.228103+00:00,4.865000,-0.028500,
2025-10-16T06:29:54.233103+00:00,4.870000,-0.029260,
2025-10-16T06:29:54.238103+00:00,4.875000,-0.026980,
2025-10-16T06:29:54.243103+00:00,4.880000,-0.021280,
2025-10-16T06:29:54.248103+00:00,4.885000,-0.018240,
2025-10-16T06:29:54.253103+00:00,4.890000,-0.022800,
2025-10-16T06:29:54.258103+00:00,4.895000,-0.028500,
2025-10-16T06:29:54.263103+00:00,4.900000,-0.031160,
2025-10-16T06:29:54.268103+00:00,4.905000,-0.025460,
2025-10-16T06:29:54.273103+00:00,4.910000,-0.019760,
2025-10-16T06:29:54.278103+00:00,4.915000,-0.018620,
2025-10-16T06:29:54.283103+00:00,4.920000,-0.022420,
2025-10-16T06:29:54.288103+00:00,4.925000,-0.024320,
2025-10-16T06:29:54.293103+00:00,4.930000,-0.023560,
2025-10-16T06:29:54.298103+00:00,4.935000,-0.022800,
2025-10-16T06:29:54.303103+00:00,4.940000,-0.025080,
2025-10-16T06:29:54.308103+00:00,4.945000,-0.024700,
2025-10-16T06:29:54.313103+00:00,4.950000,-0.021660,
2025-10-16T06:29:54.318103+00:00,4.955000,-0.018620,
2025-10-16T06:29:54.323103+00:00,4.960000,-0.023560,
2025-10-16T06:29:54.328103+00:00,4.965000,-0.027740,
2025-10-16T06:29:54.333103+00:00,4.970000,-0.027360,
2025-10-16T06:29:54.338103+00:00,4.975000,-0.022800,
2025-10-16T06:29:54.343103+00:00,4.980000,-0.016720,
2025-10-16T06:29:54.348103+00:00,4.985000,-0.009880,
2025-10-16T06:29:54.353103+00:00,4.990000,0.002280,
2025-10-16T06:29:54.358103+00:00,4.995000,0.017860,
2025-10-16T06:29:54.363103+00:00,5.000000,0.030780,
2025-10-16T06:29:54.368103+00:00,5.005000,0.036860,
2025-10-16T06:29:54.373103+00:00,5.010000,0.038760,
2025-10-16T06:29:54.378103+00:00,5.015000,0.040280,
2025-10-16T06:29:54.383103+00:00,5.020000,0.039900,
2025-10-16T06:29:54.388103+00:00,5.025000,0.036860,
2025-10-16T06:29:54.393103+00:00,5.030000,0.028500,
2025-10-16T06:29:54.398103+00:00,5.035000,0.021660,
2025-10-16T06:29:54.403103+00:00,5.040000,0.017480,
2025-10-16T06:29:54.408103+00:00,5.045000,0.014820,
2025-10-16T06:29:54.413103+00:00,5.050000,0.009120,
2025-10-16T06:29:54.418103+00:00,5.055000,0.003040,
2025-10-16T06:29:54.423103+00:00,5.060000,-0.000380,
2025-10-16T06:29:54.428103+00:00,5.065000,-0.001520,
2025-10-16T06:29:54.433103+00:00,5.070000,-0.003800,
2025-10-16T06:29:54.438103+00:00,5.075000,-0.009500,
2025-10-16T06:29:54.443103+00:00,5.080000,-0.015200,
2025-10-16T06:29:54.448103+00:00,5.085000,-0.019000,
2025-10-16T06:29:54.453103+00:00,5.090000,-0.021280,
2025-10-16T06:29:54.458103+00:00,5.095000,-0.021660,
2025-10-16T06:29:54.463103+00:00,5.100000,-0.020900,
2025-10-16T06:29:54.468103+00:00,5.105000,-0.019760,
2025-10-16T06:29:54.473103+00:00,5.110000,-0.021280,
2025-10-16T06:29:54.478103+00:00,5.115000,-0.027360,
2025-10-16T06:29:54.483103+00:00,5.120000,-0.033820,
2025-10-16T06:29:54.488103+00:00,5.125000,-0.036100,
2025-10-16T06:29:54.493103+00:00,5.130000,-0.034960,
2025-10-16T06:29:54.498103+00:00,5.135000,-0.031920,
2025-10-16T06:29:54.503103+00:00,5.140000,-0.027360,
2025-10-16T06:29:54.508103+00:00,5.145000,-0.020900,
2025-10-16T06:29:54.513103+00:00,5.150000,-0.015200,
2025-10-16T06:29:54.518103+00:00,5.155000,-0.009120,
2025-10-16T06:29:54.523103+00:00,5.160000,-0.003800,
2025-10-16T06:29:54.528103+00:00,5.165000,0.000000,
2025-10-16T06:29:54.533103+00:00,5.170000,0.001520,
2025-10-16T06:29:54.538103+00:00,5.175000,0.000760,
2025-10-16T06:29:54.543103+00:00,5.180000,0.001900,
2025-10-16T06:29:54.548103+00:00,5.185000,0.004180,
2025-10-16T06:29:54.553103+00:00,5.190000,0.004560,
2025-10-16T06:29:54.558103+00:00,5.195000,0.004940,
2025-10-16T06:29:54.563103+00:00,5.200000,0.002660,
2025-10-16T06:29:54.568103+00:00,5.205000,-0.001520,
2025-10-16T06:29:54.573103+00:00,5.210000,-0.006460,
2025-10-16T06:29:54.578103+00:00,5.215000,-0.011020,
2025-10-16T06:29:54.583103+00:00,5.220000,-0.012920,
2025-10-16T06:29:54.588103+00:00,5.225000,-0.012540,
2025-10-16T06:29:54.593103+00:00,5.230000,-0.014820,
2025-10-16T06:29:54.598103+00:00,5.235000,-0.018240,
2025-10-16T06:29:54.603103+00:00,5.240000,-0.021280,
2025-10-16T06:29:54.608103+00:00,5.245000,-0.021280,
2025-10-16T06:29:54.613103+00:00,5.250000,-0.020520,
2025-10-16T06:29:54.618103+00:00,5.255000,-0.022420,
2025-10-16T06:29:54.623103+00:00,5.260000,-0.026220,
2025-10-16T06:29:54.628103+00:00,5.265000,-0.029260,
2025-10-16T06:29:54.633103+00:00,5.270000,-0.030400,
2025-10-16T06:29:54.638103+00:00,5.275000,-0.028120,
2025-10-16T06:29:54.643103+00:00,5.280000,-0.027740,
2025-10-16T06:29:54.648103+00:00,5.285000,-0.028120,
2025-10-16T06:29:54.653103+00:00,5.290000,-0.030780,
2025-10-16T06:29:54.658103+00:00,5.295000,-0.029260,
2025-10-16T06:29:54.663103+00:00,5.300000,-0.029260,
2025-10-16T06:29:54.668103+00:00,5.305000,-0.028880,
2025-10-16T06:29:54.673103+00:00,5.310000,-0.030400,
2025-10-16T06:29:54.678103+00:00,5.315000,-0.028880,
2025-10-16T06:29:54.683103+00:00,5.320000,-0.028500,
2025-10-16T06:29:54.688103+00:00,5.325000,-0.031160,
2025-10-16T06:29:54.693103+00:00,5.330000,-0.040280,
2025-10-16T06:29:54.698103+00:00,5.335000,-0.045220,
2025-10-16T06:29:54.703103+00:00,5.340000,-0.042940,
2025-10-16T06:29:54.708103+00:00,5.345000,-0.037240,
2025-10-16T06:29:54.713103+00:00,5.350000,-0.031920,
2025-10-16T06:29:54.718103+00:00,5.355000,-0.029640,
2025-10-16T06:29:54.723103+00:00,5.360000,-0.030020,
2025-10-16T06:29:54.728103+00:00,5.365000,-0.030780,
2025-10-16T06:29:54.733103+00:00,5.370000,-0.028880,
2025-10-16T06:29:54.738103+00:00,5.375000,-0.028120,
2025-10-16T06:29:54.743103+00:00,5.380000,-0.030780,
2025-10-16T06:29:54.748103+00:00,5.385000,-0.036860,
2025-10-16T06:29:54.753103+00:00,5.390000,-0.044080,
2025-10-16T06:29:54.758103+00:00,5.395000,-0.052440,
2025-10-16T06:29:54.763103+00:00,5.400000,-0.058900,
2025-10-16T06:29:54.768103+00:00,5.405000,-0.064600,
2025-10-16T06:29:54.773103+00:00,5.410000,-0.071060,
2025-10-16T06:29:54.778103+00:00,5.415000,-0.075620,
2025-10-16T06:29:54.783103+00:00,5.420000,-0.080560,
2025-10-16T06:29:54.788103+00:00,5.425000,-0.084740,
2025-10-16T06:29:54.793103+00:00,5.430000,-0.088540,
2025-10-16T06:29:54.798103+00:00,5.435000,-0.092340,
2025-10-16T06:29:54.803103+00:00,5.440000,-0.093860,
2025-10-16T06:29:54.808103+00:00,5.445000,-0.093480,
2025-10-16T06:29:54.813103+00:00,5.450000,-0.092340,
2025-10-16T06:29:54.818103+00:00,5.455000,-0.091200,
2025-10-16T06:29:54.823103+00:00,5.460000,-0.090060,
2025-10-16T06:29:54.828103+00:00,5.465000,-0.088540,
2025-10-16T06:29:54.833103+00:00,5.470000,-0.083600,
2025-10-16T06:29:54.838103+00:00,5.475000,-0.079800,
2025-10-16T06:29:54.843103+00:00,5.480000,-0.079420,
2025-10-16T06:29:54.848103+00:00,5.485000,-0.085500,
2025-10-16T06:29:54.853103+00:00,5.490000,-0.093860,
2025-10-16T06:29:54.858103+00:00,5.495000,-0.100320,
2025-10-16T06:29:54.863103+00:00,5.500000,-0.103740,
2025-10-16T06:29:54.868103+00:00,5.505000,-0.107160,
2025-10-16T06:29:54.873103+00:00,5.510000,-0.112100,
2025-10-16T06:29:54.878103+00:00,5.515000,-0.115900,
2025-10-16T06:29:54.883103+00:00,5.520000,-0.116280,
2025-10-16T06:29:54.888103+00:00,5.525000,-0.116660,
2025-10-16T06:29:54.893103+00:00,5.530000,-0.118180,
2025-10-16T06:29:54.898103+00:00,5.535000,-0.115520,
2025-10-16T06:29:54.903103+00:00,5.540000,-0.110960,
2025-10-16T06:29:54.908103+00:00,5.545000,-0.106020,
2025-10-16T06:29:54.913103+00:00,5.550000,-0.103740,
2025-10-16T06:29:54.918103+00:00,5.555000,-0.102600,
2025-10-16T06:29:54.923103+00:00,5.560000,-0.099560,
2025-10-16T06:29:54.928103+00:00,5.565000,-0.090820,
2025-10-16T06:29:54.933103+00:00,5.570000,-0.077520,
2025-10-16T06:29:54.938103+00:00,5.575000,-0.065360,
2025-10-16T06:29:54.943103+00:00,5.580000,-0.064220,
2025-10-16T06:29:54.948103+00:00,5.585000,-0.067260,
2025-10-16T06:29:54.953103+00:00,5.590000,-0.072580,
2025-10-16T06:29:54.958103+00:00,5.595000,-0.070300,
2025-10-16T06:29:54.963103+00:00,5.600000,-0.059280,
2025-10-16T06:29:54.968103+00:00,5.605000,-0.039140,
2025-10-16T06:29:54.973103+00:00,5.610000,-0.021280,
2025-10-16T06:29:54.978103+00:00,5.615000,-0.009880,
2025-10-16T06:29:54.983103+00:00,5.620000,-0.006460,
2025-10-16T06:29:54.988103+00:00,5.625000,-0.003800,
2025-10-16T06:29:54.993103+00:00,5.630000,0.000000,
2025-10-16T06:29:54.998103+00:00,5.635000,0.004940,
2025-10-16T06:29:55.003103+00:00,5.640000,0.005700,
2025-10-16T06:29:55.008103+00:00,5.645000,0.003040,
2025-10-16T06:29:55.013103+00:00,5.650000,-0.000380,
2025-10-16T06:29:55.018103+00:00,5.655000,-0.004560,
2025-10-16T06:29:55.023103+00:00,5.660000,-0.011780,
2025-10-16T06:29:55.028103+00:00,5.665000,-0.027360,
2025-10-16T06:29:55.033103+00:00,5.670000,-0.044840,
2025-10-16T06:29:55.038103+00:00,5.675000,-0.060800,
2025-10-16T06:29:55.043103+00:00,5.680000,-0.072200,
2025-10-16T06:29:55.048103+00:00,5.685000,-0.079800,
2025-10-16T06:29:55.053103+00:00,5.690000,-0.081700,
2025-10-16T06:29:55.058103+00:00,5.695000,-0.073340,
2025-10-16T06:29:55.063103+00:00,5.700000,-0.052440,
2025-10-16T06:29:55.068103+00:00,5.705000,-0.031920,
2025-10-16T06:29:55.073103+00:00,5.710000,-0.015580,
2025-10-16T06:29:55.078103+00:00,5.715000,0.000000,
2025-10-16T06:29:55.083103+00:00,5.720000,0.019380,
2025-10-16T06:29:55.088103+00:00,5.725000,0.038380,
2025-10-16T06:29:55.093103+00:00,5.730000,0.044840,
2025-10-16T06:29:55.098103+00:00,5.735000,0.037240,
2025-10-16T06:29:55.103103+00:00,5.740000,0.026600,
2025-10-16T06:29:55.108103+00:00,5.745000,0.013680,
2025-10-16T06:29:55.113103+00:00,5.750000,-0.004180,
2025-10-16T06:29:55.118103+00:00,5.755000,-0.028880,
2025-10-16T06:29:55.123103+00:00,5.760000,-0.058520,
2025-10-16T06:29:55.128103+00:00,5.765000,-0.087780,
2025-10-16T06:29:55.133103+00:00,5.770000,-0.111720,
2025-10-16T06:29:55.138103+00:00,5.775000,-0.127300,
2025-10-16T06:29:55.143103+00:00,5.780000,-0.136420,
2025-10-16T06:29:55.148103+00:00,5.785000,-0.137180,
2025-10-16T06:29:55.153103+00:00,5.790000,-0.136420,
2025-10-16T06:29:55.158103+00:00,5.795000,-0.136420,
2025-10-16T06:29:55.163103+00:00,5.800000,-0.143640,
2025-10-16T06:29:55.168103+00:00,5.805000,-0.155800,
2025-10-16T06:29:55.173103+00:00,5.810000,-0.171760,
2025-10-16T06:29:55.178103+00:00,5.815000,-0.188100,
2025-10-16T06:29:55.183103+00:00,5.820000,-0.204440,
2025-10-16T06:29:55.188103+00:00,5.825000,-0.222680,
2025-10-16T06:29:55.193103+00:00,5.830000,-0.244720,
2025-10-16T06:29:55.198103+00:00,5.835000,-0.262960,
2025-10-16T06:29:55.203103+00:00,5.840000,-0.273980,
2025-10-16T06:29:55.208103+00:00,5.845000,-0.277400,
2025-10-16T06:29:55.213103+00:00,5.850000,-0.272460,
2025-10-16T06:29:55.218103+00:00,5.855000,-0.258400,
2025-10-16T06:29:55.223103+00:00,5.860000,-0.238260,
2025-10-16T06:29:55.228103+00:00,5.865000,-0.213560,
2025-10-16T06:29:55.233103+00:00,5.870000,-0.199120,
2025-10-16T06:29:55.238103+00:00,5.875000,-0.205960,
2025-10-16T06:29:55.243103+00:00,5.880000,-0.210900,
2025-10-16T06:29:55.248103+00:00,5.885000,-0.171760,
2025-10-16T06:29:55.253103+00:00,5.890000,-0.128060,
2025-10-16T06:29:55.258103+00:00,5.895000,-0.191140,
2025-10-16T06:29:55.263103+00:00,5.900000,-0.403560,
2025-10-16T06:29:55.268103+00:00,5.905000,-0.642580,
2025-10-16T06:29:55.273103+00:00,5.910000,-0.727320,
2025-10-16T06:29:55.278103+00:00,5.915000,-0.602680,
2025-10-16T06:29:55.283103+00:00,5.920000,-0.381140,
2025-10-16T06:29:55.288103+00:00,5.925000,-0.191140,
2025-10-16T06:29:55.293103+00:00,5.930000,-0.074100,
2025-10-16T06:29:55.298103+00:00,5.935000,-0.002660,
2025-10-16T06:29:55.303103+00:00,5.940000,0.049020,
2025-10-16T06:29:55.308103+00:00,5.945000,0.095380,
2025-10-16T06:29:55.313103+00:00,5.950000,0.134900,
2025-10-16T06:29:55.318103+00:00,5.955000,0.157700,
2025-10-16T06:29:55.323103+00:00,5.960000,0.163020,
2025-10-16T06:29:55.328103+00:00,5.965000,0.163020,
2025-10-16T06:29:55.333103+00:00,5.970000,0.161880,
2025-10-16T06:29:55.338103+00:00,5.975000,0.155040,
2025-10-16T06:29:55.343103+00:00,5.980000,0.142120,
2025-10-16T06:29:55.348103+00:00,5.985000,0.136420,
2025-10-16T06:29:55.353103+00:00,5.990000,0.145540,
2025-10-16T06:29:55.358103+00:00,5.995000,0.161500,
2025-10-16T06:29:55.363103+00:00,6.000000,0.160740,
2025-10-16T06:29:55.368103+00:00,6.005000,0.153140,
2025-10-16T06:29:55.373103+00:00,6.010000,0.130340,
2025-10-16T06:29:55.378103+00:00,6.015000,0.045600,
2025-10-16T06:29:55.383103+00:00,6.020000,-0.130340,
2025-10-16T06:29:55.388103+00:00,6.025000,-0.359100,
2025-10-16T06:29:55.393103+00:00,6.030000,-0.551000,
2025-10-16T06:29:55.398103+00:00,6.035000,-0.630040,
2025-10-16T06:29:55.403103+00:00,6.040000,-0.586720,
2025-10-16T06:29:55.408103+00:00,6.045000,-0.417240,
2025-10-16T06:29:55.413103+00:00,6.050000,-0.039900,
2025-10-16T06:29:55.418103+00:00,6.055000,0.664620,
2025-10-16T06:29:55.423103+00:00,6.060000,1.736600,
2025-10-16T06:29:55.428103+00:00,6.065000,3.080280,
2025-10-16T06:29:55.433103+00:00,6.070000,4.474880,
2025-10-16T06:29:55.438103+00:00,6.075000,5.607660,
2025-10-16T06:29:55.443103+00:00,6.080000,6.182980,
2025-10-16T06:29:55.448103+00:00,6.085000,6.052640,
2025-10-16T06:29:55.453103+00:00,6.090000,5.297200,
2025-10-16T06:29:55.458103+00:00,6.095000,4.197860,
2025-10-16T06:29:55.463103+00:00,6.100000,3.067360,
2025-10-16T06:29:55.468103+00:00,6.105000,2.076700,
2025-10-16T06:29:55.473103+00:00,6.110000,1.263880,
2025-10-16T06:29:55.478103+00:00,6.115000,0.639160,
2025-10-16T06:29:55.483103+00:00,6.120000,0.191140,
2025-10-16T06:29:55.488103+00:00,6.125000,-0.149720,
2025-10-16T06:29:55.493103+00:00,6.130000,-0.461320,
2025-10-16T06:29:55.498103+00:00,6.135000,-0.696540,
2025-10-16T06:29:55.503103+00:00,6.140000,-0.750880,
2025-10-16T06:29:55.508103+00:00,6.145000,-0.688180,
2025-10-16T06:29:55.513103+00:00,6.150000,-0.744040,
2025-10-16T06:29:55.518103+00:00,6.155000,-1.046140,
2025-10-16T06:29:55.523103+00:00,6.160000,-1.434880,
2025-10-16T06:29:55.528103+00:00,6.165000,-1.646920,
2025-10-16T06:29:55.533103+00:00,6.170000,-1.589160,
2025-10-16T06:29:55.538103+00:00,6.175000,-1.370660,
2025-10-16T06:29:55.543103+00:00,6.180000,-1.129740,
2025-10-16T06:29:55.548103+00:00,6.185000,-0.932140,
2025-10-16T06:29:55.553103+00:00,6.190000,-0.818520,
2025-10-16T06:29:55.558103+00:00,6.195000,-0.793820,
2025-10-16T06:29:55.563103+00:00,6.200000,-0.816620,
2025-10-16T06:29:55.568103+00:00,6.205000,-0.839800,
2025-10-16T06:29:55.573103+00:00,6.210000,-0.821940,
2025-10-16T06:29:55.578103+00:00,6.215000,-0.751640,
2025-10-16T06:29:55.583103+00:00,6.220000,-0.694640,
2025-10-16T06:29:55.588103+00:00,6.225000,-0.760760,
2025-10-16T06:29:55.593103+00:00,6.230000,-0.983440,
2025-10-16T06:29:55.598103+00:00,6.235000,-1.245640,
2025-10-16T06:29:55.603103+00:00,6.240000,-1.383960,
2025-10-16T06:29:55.608103+00:00,6.245000,-1.347860,
2025-10-16T06:29:55.613103+00:00,6.250000,-1.217900,
2025-10-16T06:29:55.618103+00:00,6.255000,-1.098580,
2025-10-16T06:29:55.623103+00:00,6.260000,-1.028660,
2025-10-16T06:29:55.628103+00:00,6.265000,-0.994840,
2025-10-16T06:29:55.633103+00:00,6.270000,-0.964820,
2025-10-16T06:29:55.638103+00:00,6.275000,-0.916940,
2025-10-16T06:29:55.643103+00:00,6.280000,-0.851200,
2025-10-16T06:29:55.648103+00:00,6.285000,-0.786980,
2025-10-16T06:29:55.653103+00:00,6.290000,-0.733400,
2025-10-16T06:29:55.658103+00:00,6.295000,-0.682860,
2025-10-16T06:29:55.663103+00:00,6.300000,-0.630800,
2025-10-16T06:29:55.668103+00:00,6.305000,-0.585960,
2025-10-16T06:29:55.673103+00:00,6.310000,-0.562780,
2025-10-16T06:29:55.678103+00:00,6.315000,-0.554420,
2025-10-16T06:29:55.683103+00:00,6.320000,-0.549100,
2025-10-16T06:29:55.688103+00:00,6.325000,-0.561260,
2025-10-16T06:29:55.693103+00:00,6.330000,-0.628900,
2025-10-16T06:29:55.698103+00:00,6.335000,-0.763800,
2025-10-16T06:29:55.703103+00:00,6.340000,-0.913900,
2025-10-16T06:29:55.708103+00:00,6.345000,-1.001680,
2025-10-16T06:29:55.713103+00:00,6.350000,-0.988760,
2025-10-16T06:29:55.718103+00:00,6.355000,-0.907440,
2025-10-16T06:29:55.723103+00:00,6.360000,-0.852340,
2025-10-16T06:29:55.728103+00:00,6.365000,-0.881980,
2025-10-16T06:29:55.733103+00:00,6.370000,-0.945820,
2025-10-16T06:29:55.738103+00:00,6.375000,-0.930620,
2025-10-16T06:29:55.743103+00:00,6.380000,-0.779760,
2025-10-16T06:29:55.748103+00:00,6.385000,-0.574940,
2025-10-16T06:29:55.753103+00:00,6.390000,-0.452960,
2025-10-16T06:29:55.758103+00:00,6.395000,-0.442320,
2025-10-16T06:29:55.763103+00:00,6.400000,-0.427120,
2025-10-16T06:29:55.768103+00:00,6.405000,-0.315400,
2025-10-16T06:29:55.773103+00:00,6.410000,-0.159600,
2025-10-16T06:29:55.778103+00:00,6.415000,-0.064980,
2025-10-16T06:29:55.783103+00:00,6.420000,-0.068780,
2025-10-16T06:29:55.788103+00:00,6.425000,-0.110580,
2025-10-16T06:29:55.793103+00:00,6.430000,-0.114380,
2025-10-16T06:29:55.798103+00:00,6.435000,-0.083980,
2025-10-16T06:29:55.803103+00:00,6.440000,-0.082840,
2025-10-16T06:29:55.808103+00:00,6.445000,-0.145160,
2025-10-16T06:29:55.813103+00:00,6.450000,-0.247760,
2025-10-16T06:29:55.818103+00:00,6.455000,-0.344280,
2025-10-16T06:29:55.823103+00:00,6.460000,-0.392920,
2025-10-16T06:29:55.828103+00:00,6.465000,-0.361000,
2025-10-16T06:29:55.833103+00:00,6.470000,-0.254600,
2025-10-16T06:29:55.838103+00:00,6.475000,-0.117420,
2025-10-16T06:29:55.843103+00:00,6.480000,-0.000760,
2025-10-16T06:29:55.848103+00:00,6.485000,0.057000,
2025-10-16T06:29:55.853103+00:00,6.490000,0.061560,
2025-10-16T06:29:55.858103+00:00,6.495000,0.044460,
2025-10-16T06:29:55.863103+00:00,6.500000,0.019380,
2025-10-16T06:29:55.868103+00:00,6.505000,-0.011400,
2025-10-16T06:29:55.873103+00:00,6.510000,-0.045980,
2025-10-16T06:29:55.878103+00:00,6.515000,-0.074860,
2025-10-16T06:29:55.883103+00:00,6.520000,-0.082840,
2025-10-16T06:29:55.888103+00:00,6.525000,-0.066880,
2025-10-16T06:29:55.893103+00:00,6.530000,-0.046740,
2025-10-16T06:29:55.898103+00:00,6.535000,-0.034580,
2025-10-16T06:29:55.903103+00:00,6.540000,-0.020900,
2025-10-16T06:29:55.908103+00:00,6.545000,0.000760,
2025-10-16T06:29:55.913103+00:00,6.550000,0.013680,
2025-10-16T06:29:55.918103+00:00,6.555000,0.000000,
2025-10-16T06:29:55.923103+00:00,6.560000,-0.036100,
2025-10-16T06:29:55.928103+00:00,6.565000,-0.060800,
2025-10-16T06:29:55.933103+00:00,6.570000,-0.045980,
2025-10-16T06:29:55.938103+00:00,6.575000,0.001140,
2025-10-16T06:29:55.943103+00:00,6.580000,0.041040,
2025-10-16T06:29:55.948103+00:00,6.585000,0.039900,
2025-10-16T06:29:55.953103+00:00,6.590000,-0.009500,
2025-10-16T06:29:55.958103+00:00,6.595000,-0.070680,
2025-10-16T06:29:55.963103+00:00,6.600000,-0.082460,
2025-10-16T06:29:55.968103+00:00,6.605000,-0.017480,
2025-10-16T06:29:55.973103+00:00,6.610000,0.089680,
2025-10-16T06:29:55.978103+00:00,6.615000,0.171380,
2025-10-16T06:29:55.983103+00:00,6.620000,0.177840,
2025-10-16T06:29:55.988103+00:00,6.625000,0.125780,
2025-10-16T06:29:55.993103+00:00,6.630000,0.075240,
2025-10-16T06:29:55.998103+00:00,6.635000,0.049020,
2025-10-16T06:29:56.003103+00:00,6.640000,0.019380,
2025-10-16T06:29:56.008103+00:00,6.645000,-0.040280,
2025-10-16T06:29:56.013103+00:00,6.650000,-0.109440,
2025-10-16T06:29:56.018103+00:00,6.655000,-0.136040,
2025-10-16T06:29:56.023103+00:00,6.660000,-0.095380,
2025-10-16T06:29:56.028103+00:00,6.665000,-0.027740,
2025-10-16T06:29:56.033103+00:00,6.670000,0.002280,
2025-10-16T06:29:56.038103+00:00,6.675000,-0.035340,
2025-10-16T06:29:56.043103+00:00,6.680000,-0.121980,
2025-10-16T06:29:56.048103+00:00,6.685000,-0.223060,
2025-10-16T06:29:56.053103+00:00,6.690000,-0.307040,
2025-10-16T06:29:56.058103+00:00,6.695000,-0.358720,
2025-10-16T06:29:56.063103+00:00,6.700000,-0.368980,
2025-10-16T06:29:56.068103+00:00,6.705000,-0.334780,
2025-10-16T06:29:56.073103+00:00,6.710000,-0.275500,
2025-10-16T06:29:56.078103+00:00,6.715000,-0.220780,
2025-10-16T06:29:56.083103+00:00,6.720000,-0.194940,
2025-10-16T06:29:56.088103+00:00,6.725000,-0.199120,
2025-10-16T06:29:56.093103+00:00,6.730000,-0.212800,
2025-10-16T06:29:56.098103+00:00,6.735000,-0.208240,
2025-10-16T06:29:56.103103+00:00,6.740000,-0.179360,
2025-10-16T06:29:56.108103+00:00,6.745000,-0.147440,
2025-10-16T06:29:56.113103+00:00,6.750000,-0.129580,
2025-10-16T06:29:56.118103+00:00,6.755000,-0.123120,
2025-10-16T06:29:56.123103+00:00,6.760000,-0.114760,
2025-10-16T06:29:56.128103+00:00,6.765000,-0.094240,
2025-10-16T06:29:56.133103+00:00,6.770000,-0.069160,
2025-10-16T06:29:56.138103+00:00,6.775000,-0.051680,
2025-10-16T06:29:56.143103+00:00,6.780000,-0.047880,
2025-10-16T06:29:56.148103+00:00,6.785000,-0.050540,
2025-10-16T06:29:56.153103+00:00,6.790000,-0.054340,
2025-10-16T06:29:56.158103+00:00,6.795000,-0.056240,
2025-10-16T06:29:56.163103+00:00,6.800000,-0.054340,
2025-10-16T06:29:56.168103+00:00,6.805000,-0.045980,
2025-10-16T06:29:56.173103+00:00,6.810000,-0.025080,
2025-10-16T06:29:56.178103+00:00,6.815000,0.008740,
2025-10-16T06:29:56.183103+00:00,6.820000,0.050920,
2025-10-16T06:29:56.188103+00:00,6.825000,0.085880,
2025-10-16T06:29:56.193103+00:00,6.830000,0.104120,
2025-10-16T06:29:56.198103+00:00,6.835000,0.106780,
2025-10-16T06:29:56.203103+00:00,6.840000,0.105260,
2025-10-16T06:29:56.208103+00:00,6.845000,0.110200,
2025-10-16T06:29:56.213103+00:00,6.850000,0.118940,
2025-10-16T06:29:56.218103+00:00,6.855000,0.120460,
2025-10-16T06:29:56.223103+00:00,6.860000,0.113620,
2025-10-16T06:29:56.228103+00:00,6.865000,0.111720,
2025-10-16T06:29:56.233103+00:00,6.870000,0.125400,
2025-10-16T06:29:56.238103+00:00,6.875000,0.143640,
2025-10-16T06:29:56.243103+00:00,6.880000,0.148580,
2025-10-16T06:29:56.248103+00:00,6.885000,0.136800,
2025-10-16T06:29:56.253103+00:00,6.890000,0.117800,
2025-10-16T06:29:56.258103+00:00,6.895000,0.105260,
2025-10-16T06:29:56.263103+00:00,6.900000,0.096520,
2025-10-16T06:29:56.268103+00:00,6.905000,0.089300,
2025-10-16T06:29:56.273103+00:00,6.910000,0.080560,
2025-10-16T06:29:56.278103+00:00,6.915000,0.075240,
2025-10-16T06:29:56.283103+00:00,6.920000,0.071440,
2025-10-16T06:29:56.288103+00:00,6.925000,0.068020,
2025-10-16T06:29:56.293103+00:00,6.930000,0.061560,
2025-10-16T06:29:56.298103+00:00,6.935000,0.055480,
2025-10-16T06:29:56.303103+00:00,6.940000,0.049020,
2025-10-16T06:29:56.308103+00:00,6.945000,0.045220,
2025-10-16T06:29:56.313103+00:00,6.950000,0.047500,
2025-10-16T06:29:56.318103+00:00,6.955000,0.055860,
2025-10-16T06:29:56.323103+00:00,6.960000,0.061560,
2025-10-16T06:29:56.328103+00:00,6.965000,0.062320,
2025-10-16T06:29:56.333103+00:00,6.970000,0.059280,
2025-10-16T06:29:56.338103+00:00,6.975000,0.057380,
2025-10-16T06:29:56.343103+00:00,6.980000,0.060800,
2025-10-16T06:29:56.348103+00:00,6.985000,0.070300,
2025-10-16T06:29:56.353103+00:00,6.990000,0.074100,
2025-10-16T06:29:56.358103+00:00,6.995000,0.067640,
2025-10-16T06:29:56.363103+00:00,7.000000,0.057760,
2025-10-16T06:29:56.368103+00:00,7.005000,0.051300,
2025-10-16T06:29:56.373103+00:00,7.010000,0.050920,
2025-10-16T06:29:56.378103+00:00,7.015000,0.053200,
2025-10-16T06:29:56.383103+00:00,7.020000,0.054340,
2025-10-16T06:29:56.388103+00:00,7.025000,0.053960,
2025-10-16T06:29:56.393103+00:00,7.030000,0.053960,
2025-10-16T06:29:56.398103+00:00,7.035000,0.055480,
2025-10-16T06:29:56.403103+00:00,7.040000,0.055480,
2025-10-16T06:29:56.408103+00:00,7.045000,0.053200,
2025-10-16T06:29:56.413103+00:00,7.050000,0.051300,
2025-10-16T06:29:56.418103+00:00,7.055000,0.046740,
2025-10-16T06:29:56.423103+00:00,7.060000,0.034960,
2025-10-16T06:29:56.428103+00:00,7.065000,0.014440,
2025-10-16T06:29:56.433103+00:00,7.070000,-0.003040,
2025-10-16T06:29:56.438103+00:00,7.075000,-0.006080,
2025-10-16T06:29:56.443103+00:00,7.080000,0.002280,
2025-10-16T06:29:56.448103+00:00,7.085000,0.013300,
2025-10-16T06:29:56.453103+00:00,7.090000,0.017480,
2025-10-16T06:29:56.458103+00:00,7.095000,0.016340,
2025-10-16T06:29:56.463103+00:00,7.100000,0.019380,
2025-10-16T06:29:56.468103+00:00,7.105000,0.033060,
2025-10-16T06:29:56.473103+00:00,7.110000,0.042180,
2025-10-16T06:29:56.478103+00:00,7.115000,0.033060,
2025-10-16T06:29:56.483103+00:00,7.120000,0.006840,
2025-10-16T06:29:56.488103+00:00,7.125000,-0.011020,
2025-10-16T06:29:56.493103+00:00,7.130000,-0.006080,
2025-10-16T06:29:56.498103+00:00,7.135000,0.021660,
2025-10-16T06:29:56.503103+00:00,7.140000,0.051300,
2025-10-16T06:29:56.508103+00:00,7.145000,0.057760,
2025-10-16T06:29:56.513103+00:00,7.150000,0.032680,
2025-10-16T06:29:56.518103+00:00,7.155000,-0.009500,
2025-10-16T06:29:56.523103+00:00,7.160000,-0.035720,
2025-10-16T06:29:56.528103+00:00,7.165000,-0.034200,
2025-10-16T06:29:56.533103+00:00,7.170000,-0.018620,
2025-10-16T06:29:56.538103+00:00,7.175000,-0.007980,
2025-10-16T06:29:56.543103+00:00,7.180000,-0.004180,
2025-10-16T06:29:56.548103+00:00,7.185000,0.002660,
2025-10-16T06:29:56.553103+00:00,7.190000,0.010260,
2025-10-16T06:29:56.558103+00:00,7.195000,0.012160,
2025-10-16T06:29:56.563103+00:00,7.200000,0.008740,
2025-10-16T06:29:56.568103+00:00,7.205000,0.004560,
2025-10-16T06:29:56.573103+00:00,7.210000,0.004180,
2025-10-16T06:29:56.578103+00:00,7.215000,0.007980,
2025-10-16T06:29:56.583103+00:00,7.220000,0.011400,
2025-10-16T06:29:56.588103+00:00,7.225000,0.011780,
2025-10-16T06:29:56.593103+00:00,7.230000,0.012920,
2025-10-16T06:29:56.598103+00:00,7.235000,0.018240,
2025-10-16T06:29:56.603103+00:00,7.240000,0.028500,
2025-10-16T06:29:56.608103+00:00,7.245000,0.036480,
2025-10-16T06:29:56.613103+00:00,7.250000,0.040660,
2025-10-16T06:29:56.618103+00:00,7.255000,0.046360,
2025-10-16T06:29:56.623103+00:00,7.260000,0.057000,
2025-10-16T06:29:56.628103+00:00,7.265000,0.067640,
2025-10-16T06:29:56.633103+00:00,7.270000,0.069920,
2025-10-16T06:29:56.638103+00:00,7.275000,0.063460,
2025-10-16T06:29:56.643103+00:00,7.280000,0.050160,
2025-10-16T06:29:56.648103+00:00,7.285000,0.037240,
2025-10-16T06:29:56.653103+00:00,7.290000,0.030400,
2025-10-16T06:29:56.658103+00:00,7.295000,0.028880,
2025-10-16T06:29:56.663103+00:00,7.300000,0.030400,
2025-10-16T06:29:56.668103+00:00,7.305000,0.029640,
2025-10-16T06:29:56.673103+00:00,7.310000,0.028880,
2025-10-16T06:29:56.678103+00:00,7.315000,0.023560,
2025-10-16T06:29:56.683103+00:00,7.320000,0.020140,
2025-10-16T06:29:56.688103+00:00,7.325000,0.017100,
2025-10-16T06:29:56.693103+00:00,7.330000,0.014060,
2025-10-16T06:29:56.698103+00:00,7.335000,0.010260,
2025-10-16T06:29:56.703103+00:00,7.340000,0.007600,
2025-10-16T06:29:56.708103+00:00,7.345000,0.011020,
2025-10-16T06:29:56.713103+00:00,7.350000,0.021280,
2025-10-16T06:29:56.718103+00:00,7.355000,0.029260,
2025-10-16T06:29:56.723103+00:00,7.360000,0.029260,
2025-10-16T06:29:56.728103+00:00,7.365000,0.019000,
2025-10-16T06:29:56.733103+00:00,7.370000,0.008740,
2025-10-16T06:29:56.738103+00:00,7.375000,0.002280,
2025-10-16T06:29:56.743103+00:00,7.380000,-0.000380,
2025-10-16T06:29:56.748103+00:00,7.385000,-0.003040,
2025-10-16T06:29:56.753103+00:00,7.390000,-0.007220,
2025-10-16T06:29:56.758103+00:00,7.395000,-0.011780,
2025-10-16T06:29:56.763103+00:00,7.400000,-0.012160,
2025-10-16T06:29:56.768103+00:00,7.405000,-0.006840,
2025-10-16T06:29:56.773103+00:00,7.410000,-0.001520,
2025-10-16T06:29:56.778103+00:00,7.415000,-0.002660,
2025-10-16T06:29:56.783103+00:00,7.420000,-0.003040,
2025-10-16T06:29:56.788103+00:00,7.425000,-0.004940,
2025-10-16T06:29:56.793103+00:00,7.430000,-0.005700,
2025-10-16T06:29:56.798103+00:00,7.435000,-0.006460,
2025-10-16T06:29:56.803103+00:00,7.440000,-0.011400,
2025-10-16T06:29:56.808103+00:00,7.445000,-0.015200,
2025-10-16T06:29:56.813103+00:00,7.450000,-0.015960,
2025-10-16T06:29:56.818103+00:00,7.455000,-0.007980,
2025-10-16T06:29:56.823103+00:00,7.460000,-0.001140,
2025-10-16T06:29:56.828103+00:00,7.465000,0.000760,
2025-10-16T06:29:56.833103+00:00,7.470000,-0.001520,
2025-10-16T06:29:56.838103+00:00,7.475000,-0.003040,
2025-10-16T06:29:56.843103+00:00,7.480000,-0.005700,
2025-10-16T06:29:56.848103+00:00,7.485000,-0.006460,
2025-10-16T06:29:56.853103+00:00,7.490000,-0.006080,
2025-10-16T06:29:56.858103+00:00,7.495000,-0.001140,
2025-10-16T06:29:56.863103+00:00,7.500000,0.006080,
2025-10-16T06:29:56.868103+00:00,7.505000,0.009500,
2025-10-16T06:29:56.873103+00:00,7.510000,0.006840,
2025-10-16T06:29:56.878103+00:00,7.515000,-0.000760,
2025-10-16T06:29:56.883103+00:00,7.520000,-0.005320,
2025-10-16T06:29:56.888103+00:00,7.525000,0.000380,
2025-10-16T06:29:56.893103+00:00,7.530000,0.008740,
2025-10-16T06:29:56.898103+00:00,7.535000,0.013680,
2025-10-16T06:29:56.903103+00:00,7.540000,0.011400,
2025-10-16T06:29:56.908103+00:00,7.545000,0.001520,
2025-10-16T06:29:56.913103+00:00,7.550000,-0.007220,
2025-10-16T06:29:56.918103+00:00,7.555000,-0.011780,
2025-10-16T06:29:56.923103+00:00,7.560000,-0.012920,
2025-10-16T06:29:56.928103+00:00,7.565000,-0.013300,
2025-10-16T06:29:56.933103+00:00,7.570000,-0.014820,
2025-10-16T06:29:56.938103+00:00,7.575000,-0.018620,
2025-10-16T06:29:56.943103+00:00,7.580000,-0.023940,
2025-10-16T06:29:56.948103+00:00,7.585000,-0.028120,
2025-10-16T06:29:56.953103+00:00,7.590000,-0.032300,
2025-10-16T06:29:56.958103+00:00,7.595000,-0.036480,
2025-10-16T06:29:56.963103+00:00,7.600000,-0.041800,
2025-10-16T06:29:56.968103+00:00,7.605000,-0.049020,
2025-10-16T06:29:56.973103+00:00,7.610000,-0.055480,
2025-10-16T06:29:56.978103+00:00,7.615000,-0.063840,
2025-10-16T06:29:56.983103+00:00,7.620000,-0.070300,
2025-10-16T06:29:56.988103+00:00,7.625000,-0.074860,
2025-10-16T06:29:56.993103+00:00,7.630000,-0.074480,
2025-10-16T06:29:56.998103+00:00,7.635000,-0.067640,
2025-10-16T06:29:57.003103+00:00,7.640000,-0.054340,
2025-10-16T06:29:57.008103+00:00,7.645000,-0.042560,
2025-10-16T06:29:57.013103+00:00,7.650000,-0.040280,
2025-10-16T06:29:57.018103+00:00,7.655000,-0.044080,
2025-10-16T06:29:57.023103+00:00,7.660000,-0.042560,
2025-10-16T06:29:57.028103+00:00,7.665000,-0.034580,
2025-10-16T06:29:57.033103+00:00,7.670000,-0.026600,
2025-10-16T06:29:57.038103+00:00,7.675000,-0.028120,
2025-10-16T06:29:57.043103+00:00,7.680000,-0.035720,
2025-10-16T06:29:57.048103+00:00,7.685000,-0.041800,
2025-10-16T06:29:57.053103+00:00,7.690000,-0.042560,
2025-10-16T06:29:57.058103+00:00,7.695000,-0.042560,
2025-10-16T06:29:57.063103+00:00,7.700000,-0.042560,
2025-10-16T06:29:57.068103+00:00,7.705000,-0.041420,
2025-10-16T06:29:57.073103+00:00,7.710000,-0.038380,
2025-10-16T06:29:57.078103+00:00,7.715000,-0.034200,
2025-10-16T06:29:57.083103+00:00,7.720000,-0.030020,
2025-10-16T06:29:57.088103+00:00,7.725000,-0.028120,
2025-10-16T06:29:57.093103+00:00,7.730000,-0.026600,
2025-10-16T06:29:57.098103+00:00,7.735000,-0.023180,
2025-10-16T06:29:57.103103+00:00,7.740000,-0.022800,
2025-10-16T06:29:57.108103+00:00,7.745000,-0.025080,
2025-10-16T06:29:57.113103+00:00,7.750000,-0.027360,
2025-10-16T06:29:57.118103+00:00,7.755000,-0.028120,
2025-10-16T06:29:57.123103+00:00,7.760000,-0.026600,
2025-10-16T06:29:57.128103+00:00,7.765000,-0.023180,
2025-10-16T06:29:57.133103+00:00,7.770000,-0.022040,
2025-10-16T06:29:57.138103+00:00,7.775000,-0.018620,
2025-10-16T06:29:57.143103+00:00,7.780000,-0.014440,
2025-10-16T06:29:57.148103+00:00,7.785000,-0.014820,
2025-10-16T06:29:57.153103+00:00,7.790000,-0.019760,
2025-10-16T06:29:57.158103+00:00,7.795000,-0.028120,
2025-10-16T06:29:57.163103+00:00,7.800000,-0.034580,
2025-10-16T06:29:57.168103+00:00,7.805000,-0.037240,
2025-10-16T06:29:57.173103+00:00,7.810000,-0.037620,
2025-10-16T06:29:57.178103+00:00,7.815000,-0.035340,
2025-10-16T06:29:57.183103+00:00,7.820000,-0.030020,
2025-10-16T06:29:57.188103+00:00,7.825000,-0.021280,
2025-10-16T06:29:57.193103+00:00,7.830000,-0.015200,
2025-10-16T06:29:57.198103+00:00,7.835000,-0.014440,
2025-10-16T06:29:57.203103+00:00,7.840000,-0.015960,
2025-10-16T06:29:57.208103+00:00,7.845000,-0.015960,
2025-10-16T06:29:57.213103+00:00,7.850000,-0.012920,
2025-10-16T06:29:57.218103+00:00,7.855000,-0.009500,
2025-10-16T06:29:57.223103+00:00,7.860000,-0.008740,
2025-10-16T06:29:57.228103+00:00,7.865000,-0.009500,
2025-10-16T06:29:57.233103+00:00,7.870000,-0.007980,
2025-10-16T06:29:57.238103+00:00,7.875000,-0.002280,
2025-10-16T06:29:57.243103+00:00,7.880000,0.001140,
2025-10-16T06:29:57.248103+00:00,7.885000,-0.001520,
2025-10-16T06:29:57.253103+00:00,7.890000,-0.006840,
2025-10-16T06:29:57.258103+00:00,7.895000,-0.008740,
2025-10-16T06:29:57.263103+00:00,7.900000,-0.006840,
2025-10-16T06:29:57.268103+00:00,7.905000,-0.004560,
2025-10-16T06:29:57.273103+00:00,7.910000,-0.002660,
2025-10-16T06:29:57.278103+00:00,7.915000,-0.001520,
2025-10-16T06:29:57.283103+00:00,7.920000,0.001140,
2025-10-16T06:29:57.288103+00:00,7.925000,0.003420,
2025-10-16T06:29:57.293103+00:00,7.930000,0.002280,
2025-10-16T06:29:57.298103+00:00,7.935000,-0.000760,
2025-10-16T06:29:57.303103+00:00,7.940000,-0.004940,
2025-10-16T06:29:57.308103+00:00,7.945000,-0.008360,
2025-10-16T06:29:57.313103+00:00,7.950000,-0.009500,
2025-10-16T06:29:57.318103+00:00,7.955000,-0.006080,
2025-10-16T06:29:57.323103+00:00,7.960000,-0.003420,
2025-10-16T06:29:57.328103+00:00,7.965000,-0.003800,
2025-10-16T06:29:57.333103+00:00,7.970000,-0.007980,
2025-10-16T06:29:57.338103+00:00,7.975000,-0.011400,
2025-10-16T06:29:57.343103+00:00,7.980000,-0.013680,
2025-10-16T06:29:57.348103+00:00,7.985000,-0.016340,
2025-10-16T06:29:57.353103+00:00,7.990000,-0.019380,
2025-10-16T06:29:57.358103+00:00,7.995000,-0.019380,
2025-10-16T06:29:57.363103+00:00,8.000000,-0.017100,
2025-10-16T06:29:57.368103+00:00,8.005000,-0.012540,
2025-10-16T06:29:57.373103+00:00,8.010000,-0.009120,
2025-10-16T06:29:57.378103+00:00,8.015000,-0.009500,
2025-10-16T06:29:57.383103+00:00,8.020000,-0.015200,
2025-10-16T06:29:57.388103+00:00,8.025000,-0.019380,
2025-10-16T06:29:57.393103+00:00,8.030000,-0.021660,
2025-10-16T06:29:57.398103+00:00,8.035000,-0.021660,
2025-10-16T06:29:57.403103+00:00,8.040000,-0.020520,
2025-10-16T06:29:57.408103+00:00,8.045000,-0.017480,
2025-10-16T06:29:57.413103+00:00,8.050000,-0.010260,
2025-10-16T06:29:57.418103+00:00,8.055000,-0.006460,
2025-10-16T06:29:57.423103+00:00,8.060000,-0.006840,
2025-10-16T06:29:57.428103+00:00,8.065000,-0.010640,
2025-10-16T06:29:57.433103+00:00,8.070000,-0.012160,
2025-10-16T06:29:57.438103+00:00,8.075000,-0.010640,
2025-10-16T06:29:57.443103+00:00,8.080000,-0.009880,
2025-10-16T06:29:57.448103+00:00,8.085000,-0.011400,
2025-10-16T06:29:57.453103+00:00,8.090000,-0.013300,
2025-10-16T06:29:57.458103+00:00,8.095000,-0.015200,
2025-10-16T06:29:57.463103+00:00,8.100000,-0.013680,
2025-10-16T06:29:57.468103+00:00,8.105000,-0.011400,
2025-10-16T06:29:57.473103+00:00,8.110000,-0.009500,
2025-10-16T06:29:57.478103+00:00,8.115000,-0.011020,
2025-10-16T06:29:57.483103+00:00,8.120000,-0.014820,
2025-10-16T06:29:57.488103+00:00,8.125000,-0.018620,
2025-10-16T06:29:57.493103+00:00,8.130000,-0.019380,
2025-10-16T06:29:57.498103+00:00,8.135000,-0.017100,
2025-10-16T06:29:57.503103+00:00,8.140000,-0.011400,
2025-10-16T06:29:57.508103+00:00,8.145000,-0.000380,
2025-10-16T06:29:57.513103+00:00,8.150000,0.011780,
2025-10-16T06:29:57.518103+00:00,8.155000,0.020140,
2025-10-16T06:29:57.523103+00:00,8.160000,0.019000,
2025-10-16T06:29:57.528103+00:00,8.165000,0.007980,
2025-10-16T06:29:57.533103+00:00,8.170000,-0.003420,
2025-10-16T06:29:57.538103+00:00,8.175000,-0.010260,
2025-10-16T06:29:57.543103+00:00,8.180000,-0.012920,
2025-10-16T06:29:57.548103+00:00,8.185000,-0.015960,
2025-10-16T06:29:57.553103+00:00,8.190000,-0.020520,
2025-10-16T06:29:57.558103+00:00,8.195000,-0.023180,
2025-10-16T06:29:57.563103+00:00,8.200000,-0.024320,
2025-10-16T06:29:57.568103+00:00,8.205000,-0.026220,
2025-10-16T06:29:57.573103+00:00,8.210000,-0.030780,
2025-10-16T06:29:57.578103+00:00,8.215000,-0.034960,
2025-10-16T06:29:57.583103+00:00,8.220000,-0.035340,
2025-10-16T06:29:57.588103+00:00,8.225000,-0.033060,
2025-10-16T06:29:57.593103+00:00,8.230000,-0.032300,
2025-10-16T06:29:57.598103+00:00,8.235000,-0.034200,
2025-10-16T06:29:57.603103+00:00,8.240000,-0.037240,
2025-10-16T06:29:57.608103+00:00,8.245000,-0.037620,
2025-10-16T06:29:57.613103+00:00,8.250000,-0.032300,
2025-10-16T06:29:57.618103+00:00,8.255000,-0.023560,
2025-10-16T06:29:57.623103+00:00,8.260000,-0.019380,
2025-10-16T06:29:57.628103+00:00,8.265000,-0.023560,
2025-10-16T06:29:57.633103+00:00,8.270000,-0.027740,
2025-10-16T06:29:57.638103+00:00,8.275000,-0.028500,
2025-10-16T06:29:57.643103+00:00,8.280000,-0.025080,
2025-10-16T06:29:57.648103+00:00,8.285000,-0.023940,
2025-10-16T06:29:57.653103+00:00,8.290000,-0.025840,
2025-10-16T06:29:57.658103+00:00,8.295000,-0.030400,
2025-10-16T06:29:57.663103+00:00,8.300000,-0.036480,
2025-10-16T06:29:57.668103+00:00,8.305000,-0.046740,
2025-10-16T06:29:57.673103+00:00,8.310000,-0.057000,
2025-10-16T06:29:57.678103+00:00,8.315000,-0.060800,
2025-10-16T06:29:57.683103+00:00,8.320000,-0.055100,
2025-10-16T06:29:57.688103+00:00,8.325000,-0.044460,
2025-10-16T06:29:57.693103+00:00,8.330000,-0.038000,
2025-10-16T06:29:57.698103+00:00,8.335000,-0.035720,
2025-10-16T06:29:57.703103+00:00,8.340000,-0.039140,
2025-10-16T06:29:57.708103+00:00,8.345000,-0.043320,
2025-10-16T06:29:57.713103+00:00,8.350000,-0.041800,
2025-10-16T06:29:57.718103+00:00,8.355000,-0.036860,
2025-10-16T06:29:57.723103+00:00,8.360000,-0.038000,
2025-10-16T06:29:57.728103+00:00,8.365000,-0.045600,
2025-10-16T06:29:57.733103+00:00,8.370000,-0.050540,
2025-10-16T06:29:57.738103+00:00,8.375000,-0.044460,
2025-10-16T06:29:57.743103+00:00,8.380000,-0.035340,
2025-10-16T06:29:57.748103+00:00,8.385000,-0.028880,
2025-10-16T06:29:57.753103+00:00,8.390000,-0.028880,
2025-10-16T06:29:57.758103+00:00,8.395000,-0.032680,
2025-10-16T06:29:57.763103+00:00,8.400000,-0.033440,
2025-10-16T06:29:57.768103+00:00,8.405000,-0.033440,
2025-10-16T06:29:57.773103+00:00,8.410000,-0.031920,
2025-10-16T06:29:57.778103+00:00,8.415000,-0.032300,
2025-10-16T06:29:57.783103+00:00,8.420000,-0.034960,
2025-10-16T06:29:57.788103+00:00,8.425000,-0.040660,
2025-10-16T06:29:57.793103+00:00,8.430000,-0.046360,
2025-10-16T06:29:57.798103+00:00,8.435000,-0.047500,
2025-10-16T06:29:57.803103+00:00,8.440000,-0.046360,
2025-10-16T06:29:57.808103+00:00,8.445000,-0.044080,
2025-10-16T06:29:57.813103+00:00,8.450000,-0.040660,
2025-10-16T06:29:57.818103+00:00,8.455000,-0.038760,
2025-10-16T06:29:57.823103+00:00,8.460000,-0.037240,
2025-10-16T06:29:57.828103+00:00,8.465000,-0.040660,
2025-10-16T06:29:57.833103+00:00,8.470000,-0.043320,
2025-10-16T06:29:57.838103+00:00,8.475000,-0.042940,
2025-10-16T06:29:57.843103+00:00,8.480000,-0.040280,
2025-10-16T06:29:57.848103+00:00,8.485000,-0.036100,
2025-10-16T06:29:57.853103+00:00,8.490000,-0.032680,
2025-10-16T06:29:57.858103+00:00,8.495000,-0.031160,
2025-10-16T06:29:57.863103+00:00,8.500000,-0.030780,
2025-10-16T06:29:57.868103+00:00,8.505000,-0.028880,
2025-10-16T06:29:57.873103+00:00,8.510000,-0.029640,
2025-10-16T06:29:57.878103+00:00,8.515000,-0.032680,
2025-10-16T06:29:57.883103+00:00,8.520000,-0.042180,
2025-10-16T06:29:57.888103+00:00,8.525000,-0.052060,
2025-10-16T06:29:57.893103+00:00,8.530000,-0.060800,
2025-10-16T06:29:57.898103+00:00,8.535000,-0.064980,
2025-10-16T06:29:57.903103+00:00,8.540000,-0.063080,
2025-10-16T06:29:57.908103+00:00,8.545000,-0.058900,
2025-10-16T06:29:57.913103+00:00,8.550000,-0.052820,
2025-10-16T06:29:57.918103+00:00,8.555000,-0.046360,
2025-10-16T06:29:57.923103+00:00,8.560000,-0.040660,
2025-10-16T06:29:57.928103+00:00,8.565000,-0.037620,
2025-10-16T06:29:57.933103+00:00,8.570000,-0.034200,
2025-10-16T06:29:57.938103+00:00,8.575000,-0.032300,
2025-10-16T06:29:57.943103+00:00,8.580000,-0.033820,
2025-10-16T06:29:57.948103+00:00,8.585000,-0.035340,
2025-10-16T06:29:57.953103+00:00,8.590000,-0.034960,
2025-10-16T06:29:57.958103+00:00,8.595000,-0.034580,
2025-10-16T06:29:57.963103+00:00,8.600000,-0.033820,
2025-10-16T06:29:57.968103+00:00,8.605000,-0.032680,
2025-10-16T06:29:57.973103+00:00,8.610000,-0.030400,
2025-10-16T06:29:57.978103+00:00,8.615000,-0.025460,
2025-10-16T06:29:57.983103+00:00,8.620000,-0.023940,
2025-10-16T06:29:57.988103+00:00,8.625000,-0.027360,
2025-10-16T06:29:57.993103+00:00,8.630000,-0.031160,
2025-10-16T06:29:57.998103+00:00,8.635000,-0.031160,
2025-10-16T06:29:58.003103+00:00,8.640000,-0.028120,
2025-10-16T06:29:58.008103+00:00,8.645000,-0.028120,
2025-10-16T06:29:58.013103+00:00,8.650000,-0.032300,
2025-10-16T06:29:58.018103+00:00,8.655000,-0.032300,
2025-10-16T06:29:58.023103+00:00,8.660000,-0.031540,
2025-10-16T06:29:58.028103+00:00,8.665000,-0.028500,
2025-10-16T06:29:58.033103+00:00,8.670000,-0.028120,
2025-10-16T06:29:58.038103+00:00,8.675000,-0.030020,
2025-10-16T06:29:58.043103+00:00,8.680000,-0.033440,
2025-10-16T06:29:58.048103+00:00,8.685000,-0.037240,
2025-10-16T06:29:58.053103+00:00,8.690000,-0.038760,
2025-10-16T06:29:58.058103+00:00,8.695000,-0.037620,
2025-10-16T06:29:58.063103+00:00,8.700000,-0.033060,
2025-10-16T06:29:58.068103+00:00,8.705000,-0.028880,
2025-10-16T06:29:58.073103+00:00,8.710000,-0.030020,
2025-10-16T06:29:58.078103+00:00,8.715000,-0.034580,
2025-10-16T06:29:58.083103+00:00,8.720000,-0.036100,
2025-10-16T06:29:58.088103+00:00,8.725000,-0.030400,
2025-10-16T06:29:58.093103+00:00,8.730000,-0.023180,
2025-10-16T06:29:58.098103+00:00,8.735000,-0.020900,
2025-10-16T06:29:58.103103+00:00,8.740000,-0.023560,
2025-10-16T06:29:58.108103+00:00,8.745000,-0.028500,
2025-10-16T06:29:58.113103+00:00,8.750000,-0.031160,
2025-10-16T06:29:58.118103+00:00,8.755000,-0.028120,
2025-10-16T06:29:58.123103+00:00,8.760000,-0.019000,
2025-10-16T06:29:58.128103+00:00,8.765000,-0.014060,
2025-10-16T06:29:58.133103+00:00,8.770000,-0.016720,
2025-10-16T06:29:58.138103+00:00,8.775000,-0.025080,
2025-10-16T06:29:58.143103+00:00,8.780000,-0.030780,
2025-10-16T06:29:58.148103+00:00,8.785000,-0.031160,
2025-10-16T06:29:58.153103+00:00,8.790000,-0.025460,
2025-10-16T06:29:58.158103+00:00,8.795000,-0.024320,
2025-10-16T06:29:58.163103+00:00,8.800000,-0.024700,
2025-10-16T06:29:58.168103+00:00,8.805000,-0.022800,
2025-10-16T06:29:58.173103+00:00,8.810000,-0.016340,
2025-10-16T06:29:58.178103+00:00,8.815000,-0.009500,
2025-10-16T06:29:58.183103+00:00,8.820000,-0.007600,
2025-10-16T06:29:58.188103+00:00,8.825000,-0.012540,
2025-10-16T06:29:58.193103+00:00,8.830000,-0.022040,
2025-10-16T06:29:58.198103+00:00,8.835000,-0.030020,
2025-10-16T06:29:58.203103+00:00,8.840000,-0.033440,
2025-10-16T06:29:58.208103+00:00,8.845000,-0.035340,
2025-10-16T06:29:58.213103+00:00,8.850000,-0.036480,
2025-10-16T06:29:58.218103+00:00,8.855000,-0.038000,
2025-10-16T06:29:58.223103+00:00,8.860000,-0.038380,
2025-10-16T06:29:58.228103+00:00,8.865000,-0.036480,
2025-10-16T06:29:58.233103+00:00,8.870000,-0.032300,
2025-10-16T06:29:58.238103+00:00,8.875000,-0.030020,
2025-10-16T06:29:58.243103+00:00,8.880000,-0.032300,
2025-10-16T06:29:58.248103+00:00,8.885000,-0.035340,
2025-10-16T06:29:58.253103+00:00,8.890000,-0.034960,
2025-10-16T06:29:58.258103+00:00,8.895000,-0.031160,
2025-10-16T06:29:58.263103+00:00,8.900000,-0.028880,
2025-10-16T06:29:58.268103+00:00,8.905000,-0.029640,
2025-10-16T06:29:58.273103+00:00,8.910000,-0.033060,
2025-10-16T06:29:58.278103+00:00,8.915000,-0.034200,
2025-10-16T06:29:58.283103+00:00,8.920000,-0.034580,
2025-10-16T06:29:58.288103+00:00,8.925000,-0.033440,
2025-10-16T06:29:58.293103+00:00,8.930000,-0.032300,
2025-10-16T06:29:58.298103+00:00,8.935000,-0.030020,
2025-10-16T06:29:58.303103+00:00,8.940000,-0.027740,
2025-10-16T06:29:58.308103+00:00,8.945000,-0.031920,
2025-10-16T06:29:58.313103+00:00,8.950000,-0.037240,
2025-10-16T06:29:58.318103+00:00,8.955000,-0.036860,
2025-10-16T06:29:58.323103+00:00,8.960000,-0.033440,
2025-10-16T06:29:58.328103+00:00,8.965000,-0.028880,
2025-10-16T06:29:58.333103+00:00,8.970000,-0.030780,
2025-10-16T06:29:58.338103+00:00,8.975000,-0.035720,
2025-10-16T06:29:58.343103+00:00,8.980000,-0.038380,
2025-10-16T06:29:58.348103+00:00,8.985000,-0.038380,
2025-10-16T06:29:58.353103+00:00,8.990000,-0.035340,
2025-10-16T06:29:58.358103+00:00,8.995000,-0.033060,
2025-10-16T06:29:58.363103+00:00,9.000000,-0.034960,
2025-10-16T06:29:58.368103+00:00,9.005000,-0.038000,
2025-10-16T06:29:58.373103+00:00,9.010000,-0.040660,
2025-10-16T06:29:58.378103+00:00,9.015000,-0.041800,
2025-10-16T06:29:58.383103+00:00,9.020000,-0.040660,
2025-10-16T06:29:58.388103+00:00,9.025000,-0.037240,
2025-10-16T06:29:58.393103+00:00,9.030000,-0.034580,
2025-10-16T06:29:58.398103+00:00,9.035000,-0.032680,
2025-10-16T06:29:58.403103+00:00,9.040000,-0.033820,
2025-10-16T06:29:58.408103+00:00,9.045000,-0.036100,
2025-10-16T06:29:58.413103+00:00,9.050000,-0.040280,
2025-10-16T06:29:58.418103+00:00,9.055000,-0.045980,
2025-10-16T06:29:58.423103+00:00,9.060000,-0.052440,
2025-10-16T06:29:58.428103+00:00,9.065000,-0.057000,
2025-10-16T06:29:58.433103+00:00,9.070000,-0.058900,
2025-10-16T06:29:58.438103+00:00,9.075000,-0.057380,
2025-10-16T06:29:58.443103+00:00,9.080000,-0.052820,
2025-10-16T06:29:58.448103+00:00,9.085000,-0.047500,
2025-10-16T06:29:58.453103+00:00,9.090000,-0.043320,
2025-10-16T06:29:58.458103+00:00,9.095000,-0.042180,
2025-10-16T06:29:58.463103+00:00,9.100000,-0.042940,
2025-10-16T06:29:58.468103+00:00,9.105000,-0.042560,
2025-10-16T06:29:58.473103+00:00,9.110000,-0.044080,
2025-10-16T06:29:58.478103+00:00,9.115000,-0.044840,
2025-10-16T06:29:58.483103+00:00,9.120000,-0.046740,
2025-10-16T06:29:58.488103+00:00,9.125000,-0.046360,
2025-10-16T06:29:58.493103+00:00,9.130000,-0.047120,
2025-10-16T06:29:58.498103+00:00,9.135000,-0.049780,
2025-10-16T06:29:58.503103+00:00,9.140000,-0.054720,
2025-10-16T06:29:58.508103+00:00,9.145000,-0.058900,
2025-10-16T06:29:58.513103+00:00,9.150000,-0.061180,
2025-10-16T06:29:58.518103+00:00,9.155000,-0.061180,
2025-10-16T06:29:58.523103+00:00,9.160000,-0.063080,
2025-10-16T06:29:58.528103+00:00,9.165000,-0.062320,
2025-10-16T06:29:58.533103+00:00,9.170000,-0.057760,
2025-10-16T06:29:58.538103+00:00,9.175000,-0.052440,
2025-10-16T06:29:58.543103+00:00,9.180000,-0.053200,
2025-10-16T06:29:58.548103+00:00,9.185000,-0.055860,
2025-10-16T06:29:58.553103+00:00,9.190000,-0.057000,
2025-10-16T06:29:58.558103+00:00,9.195000,-0.055860,
2025-10-16T06:29:58.563103+00:00,9.200000,-0.058900,
2025-10-16T06:29:58.568103+00:00,9.205000,-0.063840,
2025-10-16T06:29:58.573103+00:00,9.210000,-0.068780,
2025-10-16T06:29:58.578103+00:00,9.215000,-0.069920,
2025-10-16T06:29:58.583103+00:00,9.220000,-0.065360,
2025-10-16T06:29:58.588103+00:00,9.225000,-0.055100,
2025-10-16T06:29:58.593103+00:00,9.230000,-0.042180,
2025-10-16T06:29:58.598103+00:00,9.235000,-0.029640,
2025-10-16T06:29:58.603103+00:00,9.240000,-0.023180,
2025-10-16T06:29:58.608103+00:00,9.245000,-0.021280,
2025-10-16T06:29:58.613103+00:00,9.250000,-0.020900,
2025-10-16T06:29:58.618103+00:00,9.255000,-0.023560,
2025-10-16T06:29:58.623103+00:00,9.260000,-0.025840,
2025-10-16T06:29:58.628103+00:00,9.265000,-0.028500,
2025-10-16T06:29:58.633103+00:00,9.270000,-0.029640,
2025-10-16T06:29:58.638103+00:00,9.275000,-0.030020,
2025-10-16T06:29:58.643103+00:00,9.280000,-0.034200,
2025-10-16T06:29:58.648103+00:00,9.285000,-0.041420,
2025-10-16T06:29:58.653103+00:00,9.290000,-0.045600,
2025-10-16T06:29:58.658103+00:00,9.295000,-0.049020,
2025-10-16T06:29:58.663103+00:00,9.300000,-0.048260,
2025-10-16T06:29:58.668103+00:00,9.305000,-0.048640,
2025-10-16T06:29:58.673103+00:00,9.310000,-0.046740,
2025-10-16T06:29:58.678103+00:00,9.315000,-0.042940,
2025-10-16T06:29:58.683103+00:00,9.320000,-0.035720,
2025-10-16T06:29:58.688103+00:00,9.325000,-0.031540,
2025-10-16T06:29:58.693103+00:00,9.330000,-0.029260,
2025-10-16T06:29:58.698103+00:00,9.335000,-0.025840,
2025-10-16T06:29:58.703103+00:00,9.340000,-0.023940,
2025-10-16T06:29:58.708103+00:00,9.345000,-0.027360,
2025-10-16T06:29:58.713103+00:00,9.350000,-0.034200,
2025-10-16T06:29:58.718103+00:00,9.355000,-0.041800,
2025-10-16T06:29:58.723103+00:00,9.360000,-0.042940,
2025-10-16T06:29:58.728103+00:00,9.365000,-0.041420,
2025-10-16T06:29:58.733103+00:00,9.370000,-0.041420,
2025-10-16T06:29:58.738103+00:00,9.375000,-0.042180,
2025-10-16T06:29:58.743103+00:00,9.380000,-0.043320,
2025-10-16T06:29:58.748103+00:00,9.385000,-0.041420,
2025-10-16T06:29:58.753103+00:00,9.390000,-0.039520,
2025-10-16T06:29:58.758103+00:00,9.395000,-0.037240,
2025-10-16T06:29:58.763103+00:00,9.400000,-0.034960,
2025-10-16T06:29:58.768103+00:00,9.405000,-0.032680,
2025-10-16T06:29:58.773103+00:00,9.410000,-0.033820,
2025-10-16T06:29:58.778103+00:00,9.415000,-0.034580,
2025-10-16T06:29:58.783103+00:00,9.420000,-0.033820,
2025-10-16T06:29:58.788103+00:00,9.425000,-0.031540,
2025-10-16T06:29:58.793103+00:00,9.430000,-0.033440,
2025-10-16T06:29:58.798103+00:00,9.435000,-0.034580,
2025-10-16T06:29:58.803103+00:00,9.440000,-0.033440,
2025-10-16T06:29:58.808103+00:00,9.445000,-0.027740,
2025-10-16T06:29:58.813103+00:00,9.450000,-0.024320,
2025-10-16T06:29:58.818103+00:00,9.455000,-0.023940,
2025-10-16T06:29:58.823103+00:00,9.460000,-0.023940,
2025-10-16T06:29:58.828103+00:00,9.465000,-0.021660,
2025-10-16T06:29:58.833103+00:00,9.470000,-0.020900,
2025-10-16T06:29:58.838103+00:00,9.475000,-0.022800,
2025-10-16T06:29:58.843103+00:00,9.480000,-0.024700,
2025-10-16T06:29:58.848103+00:00,9.485000,-0.027360,
2025-10-16T06:29:58.853103+00:00,9.490000,-0.029640,
2025-10-16T06:29:58.858103+00:00,9.495000,-0.031540,
2025-10-16T06:29:58.863103+00:00,9.500000,-0.032300,
2025-10-16T06:29:58.868103+00:00,9.505000,-0.033820,
2025-10-16T06:29:58.873103+00:00,9.510000,-0.037240,
2025-10-16T06:29:58.878103+00:00,9.515000,-0.038760,
2025-10-16T06:29:58.883103+00:00,9.520000,-0.033440,
2025-10-16T06:29:58.888103+00:00,9.525000,-0.026980,
2025-10-16T06:29:58.893103+00:00,9.530000,-0.022040,
2025-10-16T06:29:58.898103+00:00,9.535000,-0.020900,
2025-10-16T06:29:58.903103+00:00,9.540000,-0.023560,
2025-10-16T06:29:58.908103+00:00,9.545000,-0.024700,
2025-10-16T06:29:58.913103+00:00,9.550000,-0.026220,
2025-10-16T06:29:58.918103+00:00,9.555000,-0.027360,
2025-10-16T06:29:58.923103+00:00,9.560000,-0.026220,
2025-10-16T06:29:58.928103+00:00,9.565000,-0.026980,
2025-10-16T06:29:58.933103+00:00,9.570000,-0.029260,
2025-10-16T06:29:58.938103+00:00,9.575000,-0.031920,
2025-10-16T06:29:58.943103+00:00,9.580000,-0.033440,
2025-10-16T06:29:58.948103+00:00,9.585000,-0.033440,
2025-10-16T06:29:58.953103+00:00,9.590000,-0.033060,
2025-10-16T06:29:58.958103+00:00,9.595000,-0.033820,
2025-10-16T06:29:58.963103+00:00,9.600000,-0.033820,
2025-10-16T06:29:58.968103+00:00,9.605000,-0.031160,
2025-10-16T06:29:58.973103+00:00,9.610000,-0.028500,
2025-10-16T06:29:58.978103+00:00,9.615000,-0.028500,
2025-10-16T06:29:58.983103+00:00,9.620000,-0.031920,
2025-10-16T06:29:58.988103+00:00,9.625000,-0.035720,
2025-10-16T06:29:58.993103+00:00,9.630000,-0.037240,
2025-10-16T06:29:58.998103+00:00,9.635000,-0.035720,
2025-10-16T06:29:59.003103+00:00,9.640000,-0.032680,
2025-10-16T06:29:59.008103+00:00,9.645000,-0.030020,
2025-10-16T06:29:59.013103+00:00,9.650000,-0.026980,
2025-10-16T06:29:59.018103+00:00,9.655000,-0.023560,
2025-10-16T06:29:59.023103+00:00,9.660000,-0.020520,
2025-10-16T06:29:59.028103+00:00,9.665000,-0.018620,
2025-10-16T06:29:59.033103+00:00,9.670000,-0.019760,
2025-10-16T06:29:59.038103+00:00,9.675000,-0.023560,
2025-10-16T06:29:59.043103+00:00,9.680000,-0.028500,
2025-10-16T06:29:59.048103+00:00,9.685000,-0.032300,
2025-10-16T06:29:59.053103+00:00,9.690000,-0.033820,
2025-10-16T06:29:59.058103+00:00,9.695000,-0.033440,
2025-10-16T06:29:59.063103+00:00,9.700000,-0.032300,
2025-10-16T06:29:59.068103+00:00,9.705000,-0.029260,
2025-10-16T06:29:59.073103+00:00,9.710000,-0.025840,
2025-10-16T06:29:59.078103+00:00,9.715000,-0.022420,
2025-10-16T06:29:59.083103+00:00,9.720000,-0.015580,
2025-10-16T06:29:59.088103+00:00,9.725000,-0.009880,
2025-10-16T06:29:59.093103+00:00,9.730000,-0.008740,
2025-10-16T06:29:59.098103+00:00,9.735000,-0.012920,
2025-10-16T06:29:59.103103+00:00,9.740000,-0.019000,
2025-10-16T06:29:59.108103+00:00,9.745000,-0.023940,
2025-10-16T06:29:59.113103+00:00,9.750000,-0.025840,
2025-10-16T06:29:59.118103+00:00,9.755000,-0.028500,
2025-10-16T06:29:59.123103+00:00,9.760000,-0.030780,
2025-10-16T06:29:59.128103+00:00,9.765000,-0.030780,
2025-10-16T06:29:59.133103+00:00,9.770000,-0.026220,
2025-10-16T06:29:59.138103+00:00,9.775000,-0.025840,
2025-10-16T06:29:59.143103+00:00,9.780000,-0.028500,
2025-10-16T06:29:59.148103+00:00,9.785000,-0.031920,
2025-10-16T06:29:59.153103+00:00,9.790000,-0.032680,
2025-10-16T06:29:59.158103+00:00,9.795000,-0.034200,
2025-10-16T06:29:59.163103+00:00,9.800000,-0.037240,
2025-10-16T06:29:59.168103+00:00,9.805000,-0.037620,
2025-10-16T06:29:59.173103+00:00,9.810000,-0.032300,
2025-10-16T06:29:59.178103+00:00,9.815000,-0.020900,
2025-10-16T06:29:59.183103+00:00,9.820000,-0.009500,
2025-10-16T06:29:59.188103+00:00,9.825000,-0.007220,
2025-10-16T06:29:59.193103+00:00,9.830000,-0.010640,
2025-10-16T06:29:59.198103+00:00,9.835000,-0.019760,
2025-10-16T06:29:59.203103+00:00,9.840000,-0.027740,
2025-10-16T06:29:59.208103+00:00,9.845000,-0.034200,
2025-10-16T06:29:59.213103+00:00,9.850000,-0.038000,
2025-10-16T06:29:59.218103+00:00,9.855000,-0.041800,
2025-10-16T06:29:59.223103+00:00,9.860000,-0.046360,
2025-10-16T06:29:59.228103+00:00,9.865000,-0.048640,
2025-10-16T06:29:59.233103+00:00,9.870000,-0.042940,
2025-10-16T06:29:59.238103+00:00,9.875000,-0.036480,
2025-10-16T06:29:59.243103+00:00,9.880000,-0.035720,
2025-10-16T06:29:59.248103+00:00,9.885000,-0.043320,
2025-10-16T06:29:59.253103+00:00,9.890000,-0.049400,
2025-10-16T06:29:59.258103+00:00,9.895000,-0.049020,
2025-10-16T06:29:59.263103+00:00,9.900000,-0.042940,
2025-10-16T06:29:59.268103+00:00,9.905000,-0.038000,
2025-10-16T06:29:59.273103+00:00,9.910000,-0.036480,
2025-10-16T06:29:59.278103+00:00,9.915000,-0.034960,
2025-10-16T06:29:59.283103+00:00,9.920000,-0.034580,
2025-10-16T06:29:59.288103+00:00,9.925000,-0.035720,
2025-10-16T06:29:59.293103+00:00,9.930000,-0.038380,
2025-10-16T06:29:59.298103+00:00,9.935000,-0.039520,
2025-10-16T06:29:59.303103+00:00,9.940000,-0.039140,
2025-10-16T06:29:59.308103+00:00,9.945000,-0.036100,
2025-10-16T06:29:59.313103+00:00,9.950000,-0.031540,
2025-10-16T06:29:59.318103+00:00,9.955000,-0.026980,
2025-10-16T06:29:59.323103+00:00,9.960000,-0.025840,
2025-10-16T06:29:59.328103+00:00,9.965000,-0.026600,
2025-10-16T06:29:59.333103+00:00,9.970000,-0.027360,
2025-10-16T06:29:59.338103+00:00,9.975000,-0.024700,
2025-10-16T06:29:59.343103+00:00,9.980000,-0.023560,
2025-10-16T06:29:59.348103+00:00,9.985000,-0.025460,
2025-10-16T06:29:59.353103+00:00,9.990000,-0.030400,
2025-10-16T06:29:59.358103+00:00,9.995000,-0.034960,
2025-10-16T06:29:59.363103+00:00,10.000000,-0.035340,
2025-10-16T06:29:59.368103+00:00,10.005000,-0.032680,
2025-10-16T06:29:59.373103+00:00,10.010000,-0.031540,
2025-10-16T06:29:59.378103+00:00,10.015000,-0.033440,
2025-10-16T06:29:59.383103+00:00,10.020000,-0.035720,
2025-10-16T06:29:59.388103+00:00,10.025000,-0.036860,
2025-10-16T06:29:59.393103+00:00,10.030000,-0.035720,
2025-10-16T06:29:59.398103+00:00,10.035000,-0.032680,
2025-10-16T06:29:59.403103+00:00,10.040000,-0.028120,
2025-10-16T06:29:59.408103+00:00,10.045000,-0.026220,
2025-10-16T06:29:59.413103+00:00,10.050000,-0.026600,
2025-10-16T06:29:59.418103+00:00,10.055000,-0.027360,
2025-10-16T06:29:59.423103+00:00,10.060000,-0.026600,
2025-10-16T06:29:59.428103+00:00,10.065000,-0.026220,
2025-10-16T06:29:59.433103+00:00,10.070000,-0.027740,
2025-10-16T06:29:59.438103+00:00,10.075000,-0.032300,
2025-10-16T06:29:59.443103+00:00,10.080000,-0.038760,
2025-10-16T06:29:59.448103+00:00,10.085000,-0.039140,
2025-10-16T06:29:59.453103+00:00,10.090000,-0.037620,
2025-10-16T06:29:59.458103+00:00,10.095000,-0.033440,
2025-10-16T06:29:59.463103+00:00,10.100000,-0.033060,
2025-10-16T06:29:59.468103+00:00,10.105000,-0.034200,
2025-10-16T06:29:59.473103+00:00,10.110000,-0.038000,
2025-10-16T06:29:59.478103+00:00,10.115000,-0.041420,
2025-10-16T06:29:59.483103+00:00,10.120000,-0.040660,
2025-10-16T06:29:59.488103+00:00,10.125000,-0.035720,
2025-10-16T06:29:59.493103+00:00,10.130000,-0.031160,
2025-10-16T06:29:59.498103+00:00,10.135000,-0.031920,
2025-10-16T06:29:59.503103+00:00,10.140000,-0.036100,
2025-10-16T06:29:59.508103+00:00,10.145000,-0.036860,
2025-10-16T06:29:59.513103+00:00,10.150000,-0.033820,
2025-10-16T06:29:59.518103+00:00,10.155000,-0.030400,
2025-10-16T06:29:59.523103+00:00,10.160000,-0.031160,
2025-10-16T06:29:59.528103+00:00,10.165000,-0.033060,
2025-10-16T06:29:59.533103+00:00,10.170000,-0.035340,
2025-10-16T06:29:59.538103+00:00,10.175000,-0.033820,
2025-10-16T06:29:59.543103+00:00,10.180000,-0.031160,
2025-10-16T06:29:59.548103+00:00,10.185000,-0.027360,
2025-10-16T06:29:59.553103+00:00,10.190000,-0.025460,
2025-10-16T06:29:59.558103+00:00,10.195000,-0.027360,
2025-10-16T06:29:59.563103+00:00,10.200000,-0.031160,
2025-10-16T06:29:59.568103+00:00,10.205000,-0.031540,
2025-10-16T06:29:59.573103+00:00,10.210000,-0.030400,
2025-10-16T06:29:59.578103+00:00,10.215000,-0.029260,
2025-10-16T06:29:59.583103+00:00,10.220000,-0.031160,
2025-10-16T06:29:59.588103+00:00,10.225000,-0.032680,
2025-10-16T06:29:59.593103+00:00,10.230000,-0.031540,
2025-10-16T06:29:59.598103+00:00,10.235000,-0.032300,
2025-10-16T06:29:59.603103+00:00,10.240000,-0.036480,
2025-10-16T06:29:59.608103+00:00,10.245000,-0.039140,
2025-10-16T06:29:59.613103+00:00,10.250000,-0.036480,
2025-10-16T06:29:59.618103+00:00,10.255000,-0.029640,
2025-10-16T06:29:59.623103+00:00,10.260000,-0.025080,
2025-10-16T06:29:59.628103+00:00,10.265000,-0.028880,
2025-10-16T06:29:59.633103+00:00,10.270000,-0.030780,
2025-10-16T06:29:59.638103+00:00,10.275000,-0.030020,
2025-10-16T06:29:59.643103+00:00,10.280000,-0.027360,
2025-10-16T06:29:59.648103+00:00,10.285000,-0.027360,
2025-10-16T06:29:59.653103+00:00,10.290000,-0.027740,
2025-10-16T06:29:59.658103+00:00,10.295000,-0.028500,
2025-10-16T06:29:59.663103+00:00,10.300000,-0.029260,
2025-10-16T06:29:59.668103+00:00,10.305000,-0.031160,
2025-10-16T06:29:59.673103+00:00,10.310000,-0.033820,
2025-10-16T06:29:59.678103+00:00,10.315000,-0.036480,
2025-10-16T06:29:59.683103+00:00,10.320000,-0.038380,
2025-10-16T06:29:59.688103+00:00,10.325000,-0.038760,
2025-10-16T06:29:59.693103+00:00,10.330000,-0.039140,
2025-10-16T06:29:59.698103+00:00,10.335000,-0.040280,
2025-10-16T06:29:59.703103+00:00,10.340000,-0.042180,
2025-10-16T06:29:59.708103+00:00,10.345000,-0.044460,
2025-10-16T06:29:59.713103+00:00,10.350000,-0.043700,
2025-10-16T06:29:59.718103+00:00,10.355000,-0.040280,
2025-10-16T06:29:59.723103+00:00,10.360000,-0.038380,
2025-10-16T06:29:59.728103+00:00,10.365000,-0.039140,
2025-10-16T06:29:59.733103+00:00,10.370000,-0.041040,
2025-10-16T06:29:59.738103+00:00,10.375000,-0.041800,
2025-10-16T06:29:59.743103+00:00,10.380000,-0.041420,
2025-10-16T06:29:59.748103+00:00,10.385000,-0.041800,
2025-10-16T06:29:59.753103+00:00,10.390000,-0.041800,
2025-10-16T06:29:59.758103+00:00,10.395000,-0.042560,
2025-10-16T06:29:59.763103+00:00,10.400000,-0.044080,
2025-10-16T06:29:59.768103+00:00,10.405000,-0.044840,
2025-10-16T06:29:59.773103+00:00,10.410000,-0.045600,
2025-10-16T06:29:59.778103+00:00,10.415000,-0.042940,
2025-10-16T06:29:59.783103+00:00,10.420000,-0.039140,
2025-10-16T06:29:59.788103+00:00,10.425000,-0.038000,
2025-10-16T06:29:59.793103+00:00,10.430000,-0.041040,
2025-10-16T06:29:59.798103+00:00,10.435000,-0.044840,
2025-10-16T06:29:59.803103+00:00,10.440000,-0.043320,
2025-10-16T06:29:59.808103+00:00,10.445000,-0.038380,
2025-10-16T06:29:59.813103+00:00,10.450000,-0.036860,
2025-10-16T06:29:59.818103+00:00,10.455000,-0.038760,
2025-10-16T06:29:59.823103+00:00,10.460000,-0.041420,
2025-10-16T06:29:59.828103+00:00,10.465000,-0.040280,
2025-10-16T06:29:59.833103+00:00,10.470000,-0.037620,
2025-10-16T06:29:59.838103+00:00,10.475000,-0.035720,
2025-10-16T06:29:59.843103+00:00,10.480000,-0.034580,
2025-10-16T06:29:59.848103+00:00,10.485000,-0.032300,
2025-10-16T06:29:59.853103+00:00,10.490000,-0.033440,
2025-10-16T06:29:59.858103+00:00,10.495000,-0.037240,
2025-10-16T06:29:59.863103+00:00,10.500000,-0.042180,
2025-10-16T06:29:59.868103+00:00,10.505000,-0.042940,
2025-10-16T06:29:59.873103+00:00,10.510000,-0.041800,
2025-10-16T06:29:59.878103+00:00,10.515000,-0.038760,
2025-10-16T06:29:59.883103+00:00,10.520000,-0.039900,
2025-10-16T06:29:59.888103+00:00,10.525000,-0.042180,
2025-10-16T06:29:59.893103+00:00,10.530000,-0.044460,
2025-10-16T06:29:59.898103+00:00,10.535000,-0.042560,
2025-10-16T06:29:59.903103+00:00,10.540000,-0.042560,
2025-10-16T06:29:59.908103+00:00,10.545000,-0.042940,
2025-10-16T06:29:59.913103+00:00,10.550000,-0.042560,
2025-10-16T06:29:59.918103+00:00,10.555000,-0.037620,
2025-10-16T06:29:59.923103+00:00,10.560000,-0.032300,
2025-10-16T06:29:59.928103+00:00,10.565000,-0.029260,
2025-10-16T06:29:59.933103+00:00,10.570000,-0.030780,
2025-10-16T06:29:59.938103+00:00,10.575000,-0.033060,
2025-10-16T06:29:59.943103+00:00,10.580000,-0.035340,
2025-10-16T06:29:59.948103+00:00,10.585000,-0.036860,
2025-10-16T06:29:59.953103+00:00,10.590000,-0.037240,
2025-10-16T06:29:59.958103+00:00,10.595000,-0.038000,
2025-10-16T06:29:59.963103+00:00,10.600000,-0.036860,
2025-10-16T06:29:59.968103+00:00,10.605000,-0.035720,
2025-10-16T06:29:59.973103+00:00,10.610000,-0.036860,
2025-10-16T06:29:59.978103+00:00,10.615000,-0.039900,
2025-10-16T06:29:59.983103+00:00,10.620000,-0.039520,
2025-10-16T06:29:59.988103+00:00,10.625000,-0.038760,
2025-10-16T06:29:59.993103+00:00,10.630000,-0.040660,
2025-10-16T06:29:59.998103+00:00,10.635000,-0.045980,
2025-10-16T06:30:00.003103+00:00,10.640000,-0.047880,
2025-10-16T06:30:00.008103+00:00,10.645000,-0.044080,
2025-10-16T06:30:00.013103+00:00,10.650000,-0.038000,
2025-10-16T06:30:00.018103+00:00,10.655000,-0.035720,
2025-10-16T06:30:00.023103+00:00,10.660000,-0.038000,
2025-10-16T06:30:00.028103+00:00,10.665000,-0.040280,
2025-10-16T06:30:00.033103+00:00,10.670000,-0.039520,
2025-10-16T06:30:00.038103+00:00,10.675000,-0.038380,
2025-10-16T06:30:00.043103+00:00,10.680000,-0.039520,
2025-10-16T06:30:00.048103+00:00,10.685000,-0.038760,
2025-10-16T06:30:00.053103+00:00,10.690000,-0.035340,
2025-10-16T06:30:00.058103+00:00,10.695000,-0.031540,
2025-10-16T06:30:00.063103+00:00,10.700000,-0.031160,
2025-10-16T06:30:00.068103+00:00,10.705000,-0.031160,
2025-10-16T06:30:00.073103+00:00,10.710000,-0.030020,
2025-10-16T06:30:00.078103+00:00,10.715000,-0.031160,
2025-10-16T06:30:00.083103+00:00,10.720000,-0.035340,
2025-10-16T06:30:00.088103+00:00,10.725000,-0.039900,
2025-10-16T06:30:00.093103+00:00,10.730000,-0.039520,
2025-10-16T06:30:00.098103+00:00,10.735000,-0.034580,
2025-10-16T06:30:00.103103+00:00,10.740000,-0.026600,
2025-10-16T06:30:00.108103+00:00,10.745000,-0.023180,
2025-10-16T06:30:00.113103+00:00,10.750000,-0.025460,
2025-10-16T06:30:00.118103+00:00,10.755000,-0.030020,
2025-10-16T06:30:00.123103+00:00,10.760000,-0.033820,
2025-10-16T06:30:00.128103+00:00,10.765000,-0.031540,
2025-10-16T06:30:00.133103+00:00,10.770000,-0.025840,
2025-10-16T06:30:00.138103+00:00,10.775000,-0.021660,
2025-10-16T06:30:00.143103+00:00,10.780000,-0.021660,COUNT_START|trial=1
2025-10-16T06:30:00.148103+00:00,10.785000,-0.023180,
2025-10-16T06:30:00.153103+00:00,10.790000,-0.025840,
2025-10-16T06:30:00.158103+00:00,10.795000,-0.028120,
2025-10-16T06:30:00.163103+00:00,10.800000,-0.029640,
2025-10-16T06:30:00.168103+00:00,10.805000,-0.028120,
2025-10-16T06:30:00.173103+00:00,10.810000,-0.026600,
2025-10-16T06:30:00.178103+00:00,10.815000,-0.024700,
2025-10-16T06:30:00.183103+00:00,10.820000,-0.028500,
2025-10-16T06:30:00.188103+00:00,10.825000,-0.034200,
2025-10-16T06:30:00.193103+00:00,10.830000,-0.038000,
2025-10-16T06:30:00.198103+00:00,10.835000,-0.038380,
2025-10-16T06:30:00.203103+00:00,10.840000,-0.036100,
2025-10-16T06:30:00.208103+00:00,10.845000,-0.030400,
2025-10-16T06:30:00.213103+00:00,10.850000,-0.024700,
2025-10-16T06:30:00.218103+00:00,10.855000,-0.021280,
2025-10-16T06:30:00.223103+00:00,10.860000,-0.020900,
2025-10-16T06:30:00.228103+00:00,10.865000,-0.023560,
2025-10-16T06:30:00.233103+00:00,10.870000,-0.025840,
2025-10-16T06:30:00.238103+00:00,10.875000,-0.026600,
2025-10-16T06:30:00.243103+00:00,10.880000,-0.023560,
2025-10-16T06:30:00.248103+00:00,10.885000,-0.020900,
2025-10-16T06:30:00.253103+00:00,10.890000,-0.023940,
2025-10-16T06:30:00.258103+00:00,10.895000,-0.028500,
2025-10-16T06:30:00.263103+00:00,10.900000,-0.029640,
2025-10-16T06:30:00.268103+00:00,10.905000,-0.026980,
2025-10-16T06:30:00.273103+00:00,10.910000,-0.023940,
2025-10-16T06:30:00.278103+00:00,10.915000,-0.023940,
2025-10-16T06:30:00.283103+00:00,10.920000,-0.024320,
2025-10-16T06:30:00.288103+00:00,10.925000,-0.023940,
2025-10-16T06:30:00.293103+00:00,10.930000,-0.025840,
2025-10-16T06:30:00.298103+00:00,10.935000,-0.028500,
2025-10-16T06:30:00.303103+00:00,10.940000,-0.031540,
2025-10-16T06:30:00.308103+00:00,10.945000,-0.031540,
2025-10-16T06:30:00.313103+00:00,10.950000,-0.029260,
2025-10-16T06:30:00.318103+00:00,10.955000,-0.024700,
2025-10-16T06:30:00.323103+00:00,10.960000,-0.022040,
2025-10-16T06:30:00.328103+00:00,10.965000,-0.023180,
2025-10-16T06:30:00.333103+00:00,10.970000,-0.025460,
2025-10-16T06:30:00.338103+00:00,10.975000,-0.025460,
2025-10-16T06:30:00.343103+00:00,10.980000,-0.024700,
2025-10-16T06:30:00.348103+00:00,10.985000,-0.026220,
2025-10-16T06:30:00.353103+00:00,10.990000,-0.029260,
2025-10-16T06:30:00.358103+00:00,10.995000,-0.031160,
2025-10-16T06:30:00.363103+00:00,11.000000,-0.031160,
2025-10-16T06:30:00.368103+00:00,11.005000,-0.029260,
2025-10-16T06:30:00.373103+00:00,11.010000,-0.027360,
2025-10-16T06:30:00.378103+00:00,11.015000,-0.025460,
2025-10-16T06:30:00.383103+00:00,11.020000,-0.024700,
2025-10-16T06:30:00.388103+00:00,11.025000,-0.025840,
2025-10-16T06:30:00.393103+00:00,11.030000,-0.028120,
2025-10-16T06:30:00.398103+00:00,11.035000,-0.030400,
2025-10-16T06:30:00.403103+00:00,11.040000,-0.034200,
2025-10-16T06:30:00.408103+00:00,11.045000,-0.038380,
2025-10-16T06:30:00.413103+00:00,11.050000,-0.040660,
2025-10-16T06:30:00.418103+00:00,11.055000,-0.041040,
2025-10-16T06:30:00.423103+00:00,11.060000,-0.042560,
2025-10-16T06:30:00.428103+00:00,11.065000,-0.043700,
2025-10-16T06:30:00.433103+00:00,11.070000,-0.041040,
2025-10-16T06:30:00.438103+00:00,11.075000,-0.035340,
2025-10-16T06:30:00.443103+00:00,11.080000,-0.031920,
2025-10-16T06:30:00.448103+00:00,11.085000,-0.033060,
2025-10-16T06:30:00.453103+00:00,11.090000,-0.037240,
2025-10-16T06:30:00.458103+00:00,11.095000,-0.038380,
2025-10-16T06:30:00.463103+00:00,11.100000,-0.034200,
2025-10-16T06:30:00.468103+00:00,11.105000,-0.028880,
2025-10-16T06:30:00.473103+00:00,11.110000,-0.030020,
2025-10-16T06:30:00.478103+00:00,11.115000,-0.034960,
2025-10-16T06:30:00.483103+00:00,11.120000,-0.038380,
2025-10-16T06:30:00.488103+00:00,11.125000,-0.038380,
2025-10-16T06:30:00.493103+00:00,11.130000,-0.036100,
2025-10-16T06:30:00.498103+00:00,11.135000,-0.034960,
2025-10-16T06:30:00.503103+00:00,11.140000,-0.037620,
2025-10-16T06:30:00.508103+00:00,11.145000,-0.040280,
2025-10-16T06:30:00.513103+00:00,11.150000,-0.043320,
2025-10-16T06:30:00.518103+00:00,11.155000,-0.044080,
2025-10-16T06:30:00.523103+00:00,11.160000,-0.043320,
2025-10-16T06:30:00.528103+00:00,11.165000,-0.042560,
2025-10-16T06:30:00.533103+00:00,11.170000,-0.044080,
2025-10-16T06:30:00.538103+00:00,11.175000,-0.044840,
2025-10-16T06:30:00.543103+00:00,11.180000,-0.041040,
2025-10-16T06:30:00.548103+00:00,11.185000,-0.033820,
2025-10-16T06:30:00.553103+00:00,11.190000,-0.026220,
2025-10-16T06:30:00.558103+00:00,11.195000,-0.022800,
2025-10-16T06:30:00.563103+00:00,11.200000,-0.022420,
2025-10-16T06:30:00.568103+00:00,11.205000,-0.023940,
2025-10-16T06:30:00.573103+00:00,11.210000,-0.028500,
2025-10-16T06:30:00.578103+00:00,11.215000,-0.033060,
2025-10-16T06:30:00.583103+00:00,11.220000,-0.033440,
2025-10-16T06:30:00.588103+00:00,11.225000,-0.031920,
2025-10-16T06:30:00.593103+00:00,11.230000,-0.030020,
2025-10-16T06:30:00.598103+00:00,11.235000,-0.031160,
2025-10-16T06:30:00.603103+00:00,11.240000,-0.034580,
2025-10-16T06:30:00.608103+00:00,11.245000,-0.037620,
2025-10-16T06:30:00.613103+00:00,11.250000,-0.039900,
2025-10-16T06:30:00.618103+00:00,11.255000,-0.038000,
2025-10-16T06:30:00.623103+00:00,11.260000,-0.035340,
2025-10-16T06:30:00.628103+00:00,11.265000,-0.035720,
2025-10-16T06:30:00.633103+00:00,11.270000,-0.040280,
2025-10-16T06:30:00.638103+00:00,11.275000,-0.044080,
2025-10-16T06:30:00.643103+00:00,11.280000,-0.046360,
2025-10-16T06:30:00.648103+00:00,11.285000,-0.047120,
2025-10-16T06:30:00.653103+00:00,11.290000,-0.046740,
2025-10-16T06:30:00.658103+00:00,11.295000,-0.044840,
2025-10-16T06:30:00.663103+00:00,11.300000,-0.042940,
2025-10-16T06:30:00.668103+00:00,11.305000,-0.043320,
2025-10-16T06:30:00.673103+00:00,11.310000,-0.047880,
2025-10-16T06:30:00.678103+00:00,11.315000,-0.048640,
2025-10-16T06:30:00.683103+00:00,11.320000,-0.041800,
2025-10-16T06:30:00.688103+00:00,11.325000,-0.032680,
