timestamp_utc,t_rel_sec,ecg_mV,event
2025-10-14T02:35:25.796559+00:00,0.000000,0.000000,
2025-10-14T02:35:25.801559+00:00,0.005000,0.000000,
2025-10-14T02:35:25.806559+00:00,0.010000,-0.001140,
2025-10-14T02:35:25.811559+00:00,0.015000,0.000000,
2025-10-14T02:35:25.816559+00:00,0.020000,0.015960,
2025-10-14T02:35:25.821559+00:00,0.025000,-0.072200,
2025-10-14T02:35:25.826559+00:00,0.030000,-0.000760,
2025-10-14T02:35:25.831559+00:00,0.035000,0.415340,
2025-10-14T02:35:25.836559+00:00,0.040000,-0.508820,
2025-10-14T02:35:25.841559+00:00,0.045000,-1.372940,
2025-10-14T02:35:25.846559+00:00,0.050000,1.896200,
2025-10-14T02:35:25.851559+00:00,0.055000,3.883980,
2025-10-14T02:35:25.856559+00:00,0.060000,-3.502460,
2025-10-14T02:35:25.861559+00:00,0.065000,-12.688960,
2025-10-14T02:35:25.866559+00:00,0.070000,-5.996020,
2025-10-14T02:35:25.871559+00:00,0.075000,20.239940,
2025-10-14T02:35:25.876559+00:00,0.080000,46.754440,
2025-10-14T02:35:25.881559+00:00,0.085000,48.645320,
2025-10-14T02:35:25.886559+00:00,0.090000,41.295740,
2025-10-14T02:35:25.891559+00:00,0.095000,29.737280,
2025-10-14T02:35:25.896559+00:00,0.100000,27.671980,
2025-10-14T02:35:25.901559+00:00,0.105000,28.408800,
2025-10-14T02:35:25.906559+00:00,0.110000,27.329980,
2025-10-14T02:35:25.911559+00:00,0.115000,25.914480,
2025-10-14T02:35:25.916559+00:00,0.120000,24.668840,
2025-10-14T02:35:25.921559+00:00,0.125000,23.865520,
2025-10-14T02:35:25.926559+00:00,0.130000,23.867800,
2025-10-14T02:35:25.931559+00:00,0.135000,23.766720,
2025-10-14T02:35:25.936559+00:00,0.140000,22.715640,
2025-10-14T02:35:25.941559+00:00,0.145000,20.981700,
2025-10-14T02:35:25.946559+00:00,0.150000,19.373160,
2025-10-14T02:35:25.951559+00:00,0.155000,18.174260,
2025-10-14T02:35:25.956559+00:00,0.160000,16.232840,
2025-10-14T02:35:25.961559+00:00,0.165000,12.792320,
2025-10-14T02:35:25.966559+00:00,0.170000,9.481760,
2025-10-14T02:35:25.971559+00:00,0.175000,9.275040,
2025-10-14T02:35:25.976559+00:00,0.180000,13.034760,
2025-10-14T02:35:25.981559+00:00,0.185000,17.257320,
2025-10-14T02:35:25.986559+00:00,0.190000,18.032900,
2025-10-14T02:35:25.991559+00:00,0.195000,15.515020,
2025-10-14T02:35:25.996559+00:00,0.200000,12.792700,
2025-10-14T02:35:26.001559+00:00,0.205000,11.875000,
2025-10-14T02:35:26.006559+00:00,0.210000,11.819900,
2025-10-14T02:35:26.011559+00:00,0.215000,11.202400,
2025-10-14T02:35:26.016559+00:00,0.220000,10.082920,
2025-10-14T02:35:26.021559+00:00,0.225000,9.370040,
2025-10-14T02:35:26.026559+00:00,0.230000,9.333180,
2025-10-14T02:35:26.031559+00:00,0.235000,9.204740,
2025-10-14T02:35:26.036559+00:00,0.240000,8.770780,
2025-10-14T02:35:26.041559+00:00,0.245000,8.513900,
2025-10-14T02:35:26.046559+00:00,0.250000,8.387740,
2025-10-14T02:35:26.051559+00:00,0.255000,8.122120,
2025-10-14T02:35:26.056559+00:00,0.260000,7.832560,
2025-10-14T02:35:26.061559+00:00,0.265000,7.680940,
2025-10-14T02:35:26.066559+00:00,0.270000,7.560100,
2025-10-14T02:35:26.071559+00:00,0.275000,7.384920,
2025-10-14T02:35:26.076559+00:00,0.280000,7.293720,
2025-10-14T02:35:26.081559+00:00,0.285000,7.422540,
2025-10-14T02:35:26.086559+00:00,0.290000,7.669540,
2025-10-14T02:35:26.091559+00:00,0.295000,7.703740,
2025-10-14T02:35:26.096559+00:00,0.300000,7.697280,
2025-10-14T02:35:26.101559+00:00,0.305000,8.364180,
2025-10-14T02:35:26.106559+00:00,0.310000,9.186880,
2025-10-14T02:35:26.111559+00:00,0.315000,8.545820,
2025-10-14T02:35:26.116559+00:00,0.320000,6.301920,
2025-10-14T02:35:26.121559+00:00,0.325000,3.874860,
2025-10-14T02:35:26.126559+00:00,0.330000,1.960040,
2025-10-14T02:35:26.131559+00:00,0.335000,0.282720,
2025-10-14T02:35:26.136559+00:00,0.340000,-1.232340,
2025-10-14T02:35:26.141559+00:00,0.345000,-2.544480,
2025-10-14T02:35:26.146559+00:00,0.350000,-3.448880,
2025-10-14T02:35:26.151559+00:00,0.355000,-3.628620,
2025-10-14T02:35:26.156559+00:00,0.360000,-3.545400,
2025-10-14T02:35:26.161559+00:00,0.365000,-3.780620,
2025-10-14T02:35:26.166559+00:00,0.370000,-4.164420,
2025-10-14T02:35:26.171559+00:00,0.375000,-4.487040,
2025-10-14T02:35:26.176559+00:00,0.380000,-4.738600,
2025-10-14T02:35:26.181559+00:00,0.385000,-4.788380,
2025-10-14T02:35:26.186559+00:00,0.390000,-4.746960,
2025-10-14T02:35:26.191559+00:00,0.395000,-4.915300,
2025-10-14T02:35:26.196559+00:00,0.400000,-5.050960,
2025-10-14T02:35:26.201559+00:00,0.405000,-4.899340,
2025-10-14T02:35:26.206559+00:00,0.410000,-4.819920,
2025-10-14T02:35:26.211559+00:00,0.415000,-4.917960,
2025-10-14T02:35:26.216559+00:00,0.420000,-4.857540,
2025-10-14T02:35:26.221559+00:00,0.425000,-4.755320,
2025-10-14T02:35:26.226559+00:00,0.430000,-4.839680,
2025-10-14T02:35:26.231559+00:00,0.435000,-4.832460,
2025-10-14T02:35:26.236559+00:00,0.440000,-4.652720,
2025-10-14T02:35:26.241559+00:00,0.445000,-4.627640,
2025-10-14T02:35:26.246559+00:00,0.450000,-4.679320,
2025-10-14T02:35:26.251559+00:00,0.455000,-4.536820,
2025-10-14T02:35:26.256559+00:00,0.460000,-4.417880,
2025-10-14T02:35:26.261559+00:00,0.465000,-4.458540,
2025-10-14T02:35:26.266559+00:00,0.470000,-4.381780,
2025-10-14T02:35:26.271559+00:00,0.475000,-4.233200,
2025-10-14T02:35:26.276559+00:00,0.480000,-4.244600,
2025-10-14T02:35:26.281559+00:00,0.485000,-4.211160,
2025-10-14T02:35:26.286559+00:00,0.490000,-4.054600,
2025-10-14T02:35:26.291559+00:00,0.495000,-4.066000,
2025-10-14T02:35:26.296559+00:00,0.500000,-4.153400,
2025-10-14T02:35:26.301559+00:00,0.505000,-4.008620,
2025-10-14T02:35:26.306559+00:00,0.510000,-3.860800,
2025-10-14T02:35:26.311559+00:00,0.515000,-3.891960,
2025-10-14T02:35:26.316559+00:00,0.520000,-3.822420,
2025-10-14T02:35:26.321559+00:00,0.525000,-3.661300,
2025-10-14T02:35:26.326559+00:00,0.530000,-3.639260,
2025-10-14T02:35:26.331559+00:00,0.535000,-3.613420,
2025-10-14T02:35:26.336559+00:00,0.540000,-3.515380,
2025-10-14T02:35:26.341559+00:00,0.545000,-3.562120,
2025-10-14T02:35:26.346559+00:00,0.550000,-3.625960,
2025-10-14T02:35:26.351559+00:00,0.555000,-3.473200,
2025-10-14T02:35:26.356559+00:00,0.560000,-3.359200,
2025-10-14T02:35:26.361559+00:00,0.565000,-3.416960,
2025-10-14T02:35:26.366559+00:00,0.570000,-3.346280,
2025-10-14T02:35:26.371559+00:00,0.575000,-3.190100,
2025-10-14T02:35:26.376559+00:00,0.580000,-3.190100,
2025-10-14T02:35:26.381559+00:00,0.585000,-3.169960,
2025-10-14T02:35:26.386559+00:00,0.590000,-3.042280,
2025-10-14T02:35:26.391559+00:00,0.595000,-3.057480,
2025-10-14T02:35:26.396559+00:00,0.600000,-3.119420,
2025-10-14T02:35:26.401559+00:00,0.605000,-2.970840,
2025-10-14T02:35:26.406559+00:00,0.610000,-2.850000,
2025-10-14T02:35:26.411559+00:00,0.615000,-2.907000,
2025-10-14T02:35:26.416559+00:00,0.620000,-2.857600,
2025-10-14T02:35:26.421559+00:00,0.625000,-2.726500,
2025-10-14T02:35:26.426559+00:00,0.630000,-2.743600,
2025-10-14T02:35:26.431559+00:00,0.635000,-2.736000,
2025-10-14T02:35:26.436559+00:00,0.640000,-2.614780,
2025-10-14T02:35:26.441559+00:00,0.645000,-2.622000,
2025-10-14T02:35:26.446559+00:00,0.650000,-2.661140,
2025-10-14T02:35:26.451559+00:00,0.655000,-2.512560,
2025-10-14T02:35:26.456559+00:00,0.660000,-2.440360,
2025-10-14T02:35:26.461559+00:00,0.665000,-2.557400,
2025-10-14T02:35:26.466559+00:00,0.670000,-2.530420,
2025-10-14T02:35:26.471559+00:00,0.675000,-2.362460,
2025-10-14T02:35:26.476559+00:00,0.680000,-2.322940,
2025-10-14T02:35:26.481559+00:00,0.685000,-2.296340,
2025-10-14T02:35:26.486559+00:00,0.690000,-2.223760,
2025-10-14T02:35:26.491559+00:00,0.695000,-2.316100,
2025-10-14T02:35:26.496559+00:00,0.700000,-2.405400,
2025-10-14T02:35:26.501559+00:00,0.705000,-2.232500,
2025-10-14T02:35:26.506559+00:00,0.710000,-2.090380,
2025-10-14T02:35:26.511559+00:00,0.715000,-2.153460,
2025-10-14T02:35:26.516559+00:00,0.720000,-2.118880,
2025-10-14T02:35:26.521559+00:00,0.725000,-1.993480,
2025-10-14T02:35:26.526559+00:00,0.730000,-2.009440,
2025-10-14T02:35:26.531559+00:00,0.735000,-2.015140,
2025-10-14T02:35:26.536559+00:00,0.740000,-1.929260,
2025-10-14T02:35:26.541559+00:00,0.745000,-1.976380,
2025-10-14T02:35:26.546559+00:00,0.750000,-2.036800,
2025-10-14T02:35:26.551559+00:00,0.755000,-1.898100,
2025-10-14T02:35:26.556559+00:00,0.760000,-1.826280,
2025-10-14T02:35:26.561559+00:00,0.765000,-1.927740,
2025-10-14T02:35:26.566559+00:00,0.770000,-1.879860,
2025-10-14T02:35:26.571559+00:00,0.775000,-1.732800,
2025-10-14T02:35:26.576559+00:00,0.780000,-1.742680,
2025-10-14T02:35:26.581559+00:00,0.785000,-1.750660,
2025-10-14T02:35:26.586559+00:00,0.790000,-1.670480,
2025-10-14T02:35:26.591559+00:00,0.795000,-1.729000,
2025-10-14T02:35:26.596559+00:00,0.800000,-1.811460,
2025-10-14T02:35:26.601559+00:00,0.805000,-1.684160,
2025-10-14T02:35:26.606559+00:00,0.810000,-1.588400,
2025-10-14T02:35:26.611559+00:00,0.815000,-1.646920,
2025-10-14T02:35:26.616559+00:00,0.820000,-1.585740,
2025-10-14T02:35:26.621559+00:00,0.825000,-1.459200,
2025-10-14T02:35:26.626559+00:00,0.830000,-1.498720,
2025-10-14T02:35:26.631559+00:00,0.835000,-1.516580,
2025-10-14T02:35:26.636559+00:00,0.840000,-1.413600,
2025-10-14T02:35:26.641559+00:00,0.845000,-1.429560,
2025-10-14T02:35:26.646559+00:00,0.850000,-1.487320,
2025-10-14T02:35:26.651559+00:00,0.855000,-1.391180,
2025-10-14T02:35:26.656559+00:00,0.860000,-1.364960,
2025-10-14T02:35:26.661559+00:00,0.865000,-1.483140,
2025-10-14T02:35:26.666559+00:00,0.870000,-1.426140,
2025-10-14T02:35:26.671559+00:00,0.875000,-1.252100,
2025-10-14T02:35:26.676559+00:00,0.880000,-1.244880,
2025-10-14T02:35:26.681559+00:00,0.885000,-1.254380,
2025-10-14T02:35:26.686559+00:00,0.890000,-1.194340,
2025-10-14T02:35:26.691559+00:00,0.895000,-1.287440,
2025-10-14T02:35:26.696559+00:00,0.900000,-1.384720,
2025-10-14T02:35:26.701559+00:00,0.905000,-1.228160,
2025-10-14T02:35:26.706559+00:00,0.910000,-1.094780,
2025-10-14T02:35:26.711559+00:00,0.915000,-1.167740,
2025-10-14T02:35:26.716559+00:00,0.920000,-1.162420,
2025-10-14T02:35:26.721559+00:00,0.925000,-1.086040,
2025-10-14T02:35:26.726559+00:00,0.930000,-1.144180,
2025-10-14T02:35:26.731559+00:00,0.935000,-1.146460,
2025-10-14T02:35:26.736559+00:00,0.940000,-1.029040,
2025-10-14T02:35:26.741559+00:00,0.945000,-1.061340,
2025-10-14T02:35:26.746559+00:00,0.950000,-1.140380,
2025-10-14T02:35:26.751559+00:00,0.955000,-1.025620,
2025-10-14T02:35:26.756559+00:00,0.960000,-0.954560,
2025-10-14T02:35:26.761559+00:00,0.965000,-1.048800,
2025-10-14T02:35:26.766559+00:00,0.970000,-1.036640,
2025-10-14T02:35:26.771559+00:00,0.975000,-0.969000,
2025-10-14T02:35:26.776559+00:00,0.980000,-1.034360,
2025-10-14T02:35:26.781559+00:00,0.985000,-1.013080,
2025-10-14T02:35:26.786559+00:00,0.990000,-0.874000,
2025-10-14T02:35:26.791559+00:00,0.995000,-0.928340,
2025-10-14T02:35:26.796559+00:00,1.000000,-1.039680,
2025-10-14T02:35:26.801559+00:00,1.005000,-0.918080,
2025-10-14T02:35:26.806559+00:00,1.010000,-0.810160,
2025-10-14T02:35:26.811559+00:00,1.015000,-0.872860,
2025-10-14T02:35:26.816559+00:00,1.020000,-0.847400,
2025-10-14T02:35:26.821559+00:00,1.025000,-0.773300,
2025-10-14T02:35:26.826559+00:00,1.030000,-0.850060,
2025-10-14T02:35:26.831559+00:00,1.035000,-0.876280,
2025-10-14T02:35:26.836559+00:00,1.040000,-0.781660,
2025-10-14T02:35:26.841559+00:00,1.045000,-0.820800,
2025-10-14T02:35:26.846559+00:00,1.050000,-0.896800,
2025-10-14T02:35:26.851559+00:00,1.055000,-0.791160,
2025-10-14T02:35:26.856559+00:00,1.060000,-0.732640,
2025-10-14T02:35:26.861559+00:00,1.065000,-0.810540,
2025-10-14T02:35:26.866559+00:00,1.070000,-0.744040,
2025-10-14T02:35:26.871559+00:00,1.075000,-0.623580,
2025-10-14T02:35:26.876559+00:00,1.080000,-0.696920,
2025-10-14T02:35:26.881559+00:00,1.085000,-0.731120,
2025-10-14T02:35:26.886559+00:00,1.090000,-0.613320,
2025-10-14T02:35:26.891559+00:00,1.095000,-0.625480,
2025-10-14T02:35:26.896559+00:00,1.100000,-0.701860,
2025-10-14T02:35:26.901559+00:00,1.105000,-0.619780,
2025-10-14T02:35:26.906559+00:00,1.110000,-0.607620,
2025-10-14T02:35:26.911559+00:00,1.115000,-0.738720,
2025-10-14T02:35:26.916559+00:00,1.120000,-0.709840,
2025-10-14T02:35:26.921559+00:00,1.125000,-0.603060,
2025-10-14T02:35:26.926559+00:00,1.130000,-0.673360,
2025-10-14T02:35:26.931559+00:00,1.135000,-0.703760,
2025-10-14T02:35:26.936559+00:00,1.140000,-0.606480,
2025-10-14T02:35:26.941559+00:00,1.145000,-0.639540,
2025-10-14T02:35:26.946559+00:00,1.150000,-0.696920,
2025-10-14T02:35:26.951559+00:00,1.155000,-0.570760,
2025-10-14T02:35:26.956559+00:00,1.160000,-0.530100,
2025-10-14T02:35:26.961559+00:00,1.165000,-0.657780,
2025-10-14T02:35:26.966559+00:00,1.170000,-0.632320,
2025-10-14T02:35:26.971559+00:00,1.175000,-0.525160,
2025-10-14T02:35:26.976559+00:00,1.180000,-0.584060,
2025-10-14T02:35:26.981559+00:00,1.185000,-0.602680,
2025-10-14T02:35:26.986559+00:00,1.190000,-0.501600,
2025-10-14T02:35:26.991559+00:00,1.195000,-0.547200,
2025-10-14T02:35:26.996559+00:00,1.200000,-0.627000,
2025-10-14T02:35:27.001559+00:00,1.205000,-0.514520,
2025-10-14T02:35:27.006559+00:00,1.210000,-0.462460,
2025-10-14T02:35:27.011559+00:00,1.215000,-0.566200,
2025-10-14T02:35:27.016559+00:00,1.220000,-0.528960,
2025-10-14T02:35:27.021559+00:00,1.225000,-0.432440,
2025-10-14T02:35:27.026559+00:00,1.230000,-0.514140,
2025-10-14T02:35:27.031559+00:00,1.235000,-0.555180,
2025-10-14T02:35:27.036559+00:00,1.240000,-0.460180,
2025-10-14T02:35:27.041559+00:00,1.245000,-0.472340,
2025-10-14T02:35:27.046559+00:00,1.250000,-0.516800,
2025-10-14T02:35:27.051559+00:00,1.255000,-0.427120,
2025-10-14T02:35:27.056559+00:00,1.260000,-0.432820,
2025-10-14T02:35:27.061559+00:00,1.265000,-0.552900,
2025-10-14T02:35:27.066559+00:00,1.270000,-0.483360,
2025-10-14T02:35:27.071559+00:00,1.275000,-0.364420,
2025-10-14T02:35:27.076559+00:00,1.280000,-0.451060,
2025-10-14T02:35:27.081559+00:00,1.285000,-0.481080,
2025-10-14T02:35:27.086559+00:00,1.290000,-0.360620,
2025-10-14T02:35:27.091559+00:00,1.295000,-0.397860,
2025-10-14T02:35:27.096559+00:00,1.300000,-0.487540,
2025-10-14T02:35:27.101559+00:00,1.305000,-0.364800,
2025-10-14T02:35:27.106559+00:00,1.310000,-0.281580,
2025-10-14T02:35:27.111559+00:00,1.315000,-0.373540,
2025-10-14T02:35:27.116559+00:00,1.320000,-0.368980,
2025-10-14T02:35:27.121559+00:00,1.325000,-0.322620,
2025-10-14T02:35:27.126559+00:00,1.330000,-0.421800,
2025-10-14T02:35:27.131559+00:00,1.335000,-0.434720,
2025-10-14T02:35:27.136559+00:00,1.340000,-0.317300,
2025-10-14T02:35:27.141559+00:00,1.345000,-0.351120,
2025-10-14T02:35:27.146559+00:00,1.350000,-0.424460,
2025-10-14T02:35:27.151559+00:00,1.355000,-0.333640,
2025-10-14T02:35:27.156559+00:00,1.360000,-0.318820,
2025-10-14T02:35:27.161559+00:00,1.365000,-0.418380,
2025-10-14T02:35:27.166559+00:00,1.370000,-0.359860,
2025-10-14T02:35:27.171559+00:00,1.375000,-0.285000,
2025-10-14T02:35:27.176559+00:00,1.380000,-0.402420,
2025-10-14T02:35:27.181559+00:00,1.385000,-0.416480,
2025-10-14T02:35:27.186559+00:00,1.390000,-0.249660,
2025-10-14T02:35:27.191559+00:00,1.395000,-0.261440,
2025-10-14T02:35:27.196559+00:00,1.400000,-0.363660,
2025-10-14T02:35:27.201559+00:00,1.405000,-0.260680,
2025-10-14T02:35:27.206559+00:00,1.410000,-0.172520,
2025-10-14T02:35:27.211559+00:00,1.415000,-0.246620,
2025-10-14T02:35:27.216559+00:00,1.420000,-0.257260,
2025-10-14T02:35:27.221559+00:00,1.425000,-0.245860,
2025-10-14T02:35:27.226559+00:00,1.430000,-0.341620,
2025-10-14T02:35:27.231559+00:00,1.435000,-0.331740,
2025-10-14T02:35:27.236559+00:00,1.440000,-0.221160,
2025-10-14T02:35:27.241559+00:00,1.445000,-0.287660,
2025-10-14T02:35:27.246559+00:00,1.450000,-0.379240,
2025-10-14T02:35:27.251559+00:00,1.455000,-0.276640,
2025-10-14T02:35:27.256559+00:00,1.460000,-0.231040,
2025-10-14T02:35:27.261559+00:00,1.465000,-0.307800,
2025-10-14T02:35:27.266559+00:00,1.470000,-0.251940,
2025-10-14T02:35:27.271559+00:00,1.475000,-0.191900,
2025-10-14T02:35:27.276559+00:00,1.480000,-0.323380,
2025-10-14T02:35:27.281559+00:00,1.485000,-0.356440,
2025-10-14T02:35:27.286559+00:00,1.490000,-0.201780,
2025-10-14T02:35:27.291559+00:00,1.495000,-0.180120,
2025-10-14T02:35:27.296559+00:00,1.500000,-0.232560,
2025-10-14T02:35:27.301559+00:00,1.505000,-0.155420,
2025-10-14T02:35:27.306559+00:00,1.510000,-0.156940,
2025-10-14T02:35:27.311559+00:00,1.515000,-0.289560,
2025-10-14T02:35:27.316559+00:00,1.520000,-0.269040,
2025-10-14T02:35:27.321559+00:00,1.525000,-0.202540,
2025-10-14T02:35:27.326559+00:00,1.530000,-0.305900,
2025-10-14T02:35:27.331559+00:00,1.535000,-0.326040,
2025-10-14T02:35:27.336559+00:00,1.540000,-0.182020,
2025-10-14T02:35:27.341559+00:00,1.545000,-0.163020,
2025-10-14T02:35:27.346559+00:00,1.550000,-0.202920,
2025-10-14T02:35:27.351559+00:00,1.555000,-0.126540,
2025-10-14T02:35:27.356559+00:00,1.560000,-0.147820,
2025-10-14T02:35:27.361559+00:00,1.565000,-0.286140,
2025-10-14T02:35:27.366559+00:00,1.570000,-0.250420,
2025-10-14T02:35:27.371559+00:00,1.575000,-0.156180,
2025-10-14T02:35:27.376559+00:00,1.580000,-0.237500,
2025-10-14T02:35:27.381559+00:00,1.585000,-0.253460,
2025-10-14T02:35:27.386559+00:00,1.590000,-0.129200,
2025-10-14T02:35:27.391559+00:00,1.595000,-0.147440,
2025-10-14T02:35:27.396559+00:00,1.600000,-0.222680,
2025-10-14T02:35:27.401559+00:00,1.605000,-0.147060,
2025-10-14T02:35:27.406559+00:00,1.610000,-0.133760,
2025-10-14T02:35:27.411559+00:00,1.615000,-0.231800,
2025-10-14T02:35:27.416559+00:00,1.620000,-0.167960,
2025-10-14T02:35:27.421559+00:00,1.625000,-0.069920,
2025-10-14T02:35:27.426559+00:00,1.630000,-0.172520,
2025-10-14T02:35:27.431559+00:00,1.635000,-0.226860,
2025-10-14T02:35:27.436559+00:00,1.640000,-0.129580,
2025-10-14T02:35:27.441559+00:00,1.645000,-0.131480,
2025-10-14T02:35:27.446559+00:00,1.650000,-0.169480,
2025-10-14T02:35:27.451559+00:00,1.655000,-0.099180,
2025-10-14T02:35:27.456559+00:00,1.660000,-0.151240,
2025-10-14T02:35:27.461559+00:00,1.665000,-0.310840,
2025-10-14T02:35:27.466559+00:00,1.670000,-0.255740,
2025-10-14T02:35:27.471559+00:00,1.675000,-0.139460,
2025-10-14T02:35:27.476559+00:00,1.680000,-0.233700,
2025-10-14T02:35:27.481559+00:00,1.685000,-0.269800,
2025-10-14T02:35:27.486559+00:00,1.690000,-0.118940,
2025-10-14T02:35:27.491559+00:00,1.695000,-0.066120,
2025-10-14T02:35:27.496559+00:00,1.700000,-0.100700,
2025-10-14T02:35:27.501559+00:00,1.705000,-0.072580,
2025-10-14T02:35:27.506559+00:00,1.710000,-0.146300,
2025-10-14T02:35:27.511559+00:00,1.715000,-0.286140,
2025-10-14T02:35:27.516559+00:00,1.720000,-0.213180,
2025-10-14T02:35:27.521559+00:00,1.725000,-0.106780,
2025-10-14T02:35:27.526559+00:00,1.730000,-0.210900,
2025-10-14T02:35:27.531559+00:00,1.735000,-0.233320,
2025-10-14T02:35:27.536559+00:00,1.740000,-0.075240,
2025-10-14T02:35:27.541559+00:00,1.745000,-0.049780,
2025-10-14T02:35:27.546559+00:00,1.750000,-0.109820,
2025-10-14T02:35:27.551559+00:00,1.755000,-0.070300,
2025-10-14T02:35:27.556559+00:00,1.760000,-0.123120,
2025-10-14T02:35:27.561559+00:00,1.765000,-0.262580,
2025-10-14T02:35:27.566559+00:00,1.770000,-0.199120,
2025-10-14T02:35:27.571559+00:00,1.775000,-0.088540,
2025-10-14T02:35:27.576559+00:00,1.780000,-0.174420,
2025-10-14T02:35:27.581559+00:00,1.785000,-0.194940,
2025-10-14T02:35:27.586559+00:00,1.790000,-0.058900,
2025-10-14T02:35:27.591559+00:00,1.795000,-0.040280,
2025-10-14T02:35:27.596559+00:00,1.800000,-0.086640,
2025-10-14T02:35:27.601559+00:00,1.805000,-0.037240,
2025-10-14T02:35:27.606559+00:00,1.810000,-0.081700,
2025-10-14T02:35:27.611559+00:00,1.815000,-0.205960,
2025-10-14T02:35:27.616559+00:00,1.820000,-0.147060,
2025-10-14T02:35:27.621559+00:00,1.825000,-0.066500,
2025-10-14T02:35:27.626559+00:00,1.830000,-0.171760,
2025-10-14T02:35:27.631559+00:00,1.835000,-0.190380,
2025-10-14T02:35:27.636559+00:00,1.840000,-0.050920,
2025-10-14T02:35:27.641559+00:00,1.845000,-0.053200,
2025-10-14T02:35:27.646559+00:00,1.850000,-0.132620,
2025-10-14T02:35:27.651559+00:00,1.855000,-0.076760,
2025-10-14T02:35:27.656559+00:00,1.860000,-0.065740,
2025-10-14T02:35:27.661559+00:00,1.865000,-0.141360,
2025-10-14T02:35:27.666559+00:00,1.870000,-0.076380,
2025-10-14T02:35:27.671559+00:00,1.875000,-0.014440,
2025-10-14T02:35:27.676559+00:00,1.880000,-0.137940,
2025-10-14T02:35:27.681559+00:00,1.885000,-0.168720,
2025-10-14T02:35:27.686559+00:00,1.890000,-0.043320,
2025-10-14T02:35:27.691559+00:00,1.895000,-0.059280,
2025-10-14T02:35:27.696559+00:00,1.900000,-0.134520,
2025-10-14T02:35:27.701559+00:00,1.905000,-0.069160,
2025-10-14T02:35:27.706559+00:00,1.910000,-0.082460,
2025-10-14T02:35:27.711559+00:00,1.915000,-0.187720,
2025-10-14T02:35:27.716559+00:00,1.920000,-0.098420,
2025-10-14T02:35:27.721559+00:00,1.925000,0.024700,
2025-10-14T02:35:27.726559+00:00,1.930000,-0.075240,
2025-10-14T02:35:27.731559+00:00,1.935000,-0.132620,
2025-10-14T02:35:27.736559+00:00,1.940000,-0.036860,
2025-10-14T02:35:27.741559+00:00,1.945000,-0.060420,
2025-10-14T02:35:27.746559+00:00,1.950000,-0.127680,
2025-10-14T02:35:27.751559+00:00,1.955000,-0.039900,
2025-10-14T02:35:27.756559+00:00,1.960000,-0.011400,
2025-10-14T02:35:27.761559+00:00,1.965000,-0.106780,
2025-10-14T02:35:27.766559+00:00,1.970000,-0.083600,
2025-10-14T02:35:27.771559+00:00,1.975000,-0.056620,
2025-10-14T02:35:27.776559+00:00,1.980000,-0.170240,
2025-10-14T02:35:27.781559+00:00,1.985000,-0.154280,
2025-10-14T02:35:27.786559+00:00,1.990000,0.009120,
2025-10-14T02:35:27.791559+00:00,1.995000,0.001520,
2025-10-14T02:35:27.796559+00:00,2.000000,-0.083220,
2025-10-14T02:35:27.801559+00:00,2.005000,-0.047500,
2025-10-14T02:35:27.806559+00:00,2.010000,-0.090440,
2025-10-14T02:35:27.811559+00:00,2.015000,-0.205580,
2025-10-14T02:35:27.816559+00:00,2.020000,-0.129580,
2025-10-14T02:35:27.821559+00:00,2.025000,-0.039520,
2025-10-14T02:35:27.826559+00:00,2.030000,-0.156940,
2025-10-14T02:35:27.831559+00:00,2.035000,-0.185440,
2025-10-14T02:35:27.836559+00:00,2.040000,-0.025460,
2025-10-14T02:35:27.841559+00:00,2.045000,0.017480,
2025-10-14T02:35:27.846559+00:00,2.050000,-0.031920,
2025-10-14T02:35:27.851559+00:00,2.055000,-0.017100,
2025-10-14T02:35:27.856559+00:00,2.060000,-0.099940,
2025-10-14T02:35:27.861559+00:00,2.065000,-0.231040,
2025-10-14T02:35:27.866559+00:00,2.070000,-0.141360,
2025-10-14T02:35:27.871559+00:00,2.075000,-0.030780,
2025-10-14T02:35:27.876559+00:00,2.080000,-0.136420,
2025-10-14T02:35:27.881559+00:00,2.085000,-0.166440,
2025-10-14T02:35:27.886559+00:00,2.090000,-0.020900,
2025-10-14T02:35:27.891559+00:00,2.095000,0.009120,
2025-10-14T02:35:27.896559+00:00,2.100000,-0.025840,
2025-10-14T02:35:27.901559+00:00,2.105000,0.023560,
2025-10-14T02:35:27.906559+00:00,2.110000,-0.043700,
2025-10-14T02:35:27.911559+00:00,2.115000,-0.191520,
2025-10-14T02:35:27.916559+00:00,2.120000,-0.111720,
2025-10-14T02:35:27.921559+00:00,2.125000,0.024320,
2025-10-14T02:35:27.926559+00:00,2.130000,-0.050540,
2025-10-14T02:35:27.931559+00:00,2.135000,-0.090820,
2025-10-14T02:35:27.936559+00:00,2.140000,0.001140,
2025-10-14T02:35:27.941559+00:00,2.145000,-0.022040,
2025-10-14T02:35:27.946559+00:00,2.150000,-0.082460,
2025-10-14T02:35:27.951559+00:00,2.155000,-0.020520,
2025-10-14T02:35:27.956559+00:00,2.160000,-0.040660,
2025-10-14T02:35:27.961559+00:00,2.165000,-0.146300,
2025-10-14T02:35:27.966559+00:00,2.170000,-0.086260,
2025-10-14T02:35:27.971559+00:00,2.175000,-0.036100,
2025-10-14T02:35:27.976559+00:00,2.180000,-0.174040,
2025-10-14T02:35:27.981559+00:00,2.185000,-0.185440,
2025-10-14T02:35:27.986559+00:00,2.190000,-0.009500,
2025-10-14T02:35:27.991559+00:00,2.195000,0.017100,
2025-10-14T02:35:27.996559+00:00,2.200000,-0.052440,
2025-10-14T02:35:28.001559+00:00,2.205000,-0.023180,
2025-10-14T02:35:28.006559+00:00,2.210000,-0.077900,
2025-10-14T02:35:28.011559+00:00,2.215000,-0.194180,
2025-10-14T02:35:28.016559+00:00,2.220000,-0.089680,
2025-10-14T02:35:28.021559+00:00,2.225000,0.045980,
2025-10-14T02:35:28.026559+00:00,2.230000,-0.039140,
2025-10-14T02:35:28.031559+00:00,2.235000,-0.089680,
2025-10-14T02:35:28.036559+00:00,2.240000,-0.005320,
2025-10-14T02:35:28.041559+00:00,2.245000,-0.023560,
2025-10-14T02:35:28.046559+00:00,2.250000,-0.060420,
2025-10-14T02:35:28.051559+00:00,2.255000,-0.006460,
2025-10-14T02:35:28.056559+00:00,2.260000,-0.088920,
2025-10-14T02:35:28.061559+00:00,2.265000,-0.234080,
2025-10-14T02:35:28.066559+00:00,2.270000,-0.121980,
2025-10-14T02:35:28.071559+00:00,2.275000,0.031920,
2025-10-14T02:35:28.076559+00:00,2.280000,-0.050540,
2025-10-14T02:35:28.081559+00:00,2.285000,-0.102220,
2025-10-14T02:35:28.086559+00:00,2.290000,-0.004940,
2025-10-14T02:35:28.091559+00:00,2.295000,0.007600,
2025-10-14T02:35:28.096559+00:00,2.300000,-0.017860,
2025-10-14T02:35:28.101559+00:00,2.305000,0.011780,
2025-10-14T02:35:28.106559+00:00,2.310000,-0.100700,
2025-10-14T02:35:28.111559+00:00,2.315000,-0.251180,
2025-10-14T02:35:28.116559+00:00,2.320000,-0.135660,
2025-10-14T02:35:28.121559+00:00,2.325000,0.014820,
2025-10-14T02:35:28.126559+00:00,2.330000,-0.077140,
2025-10-14T02:35:28.131559+00:00,2.335000,-0.118940,
2025-10-14T02:35:28.136559+00:00,2.340000,0.003800,
2025-10-14T02:35:28.141559+00:00,2.345000,0.020520,
2025-10-14T02:35:28.146559+00:00,2.350000,-0.024700,
2025-10-14T02:35:28.151559+00:00,2.355000,0.022420,
2025-10-14T02:35:28.156559+00:00,2.360000,-0.031160,
2025-10-14T02:35:28.161559+00:00,2.365000,-0.160740,
2025-10-14T02:35:28.166559+00:00,2.370000,-0.091200,
2025-10-14T02:35:28.171559+00:00,2.375000,0.014440,
2025-10-14T02:35:28.176559+00:00,2.380000,-0.058900,
2025-10-14T02:35:28.181559+00:00,2.385000,-0.063080,
2025-10-14T02:35:28.186559+00:00,2.390000,0.037240,
2025-10-14T02:35:28.191559+00:00,2.395000,-0.014440,
2025-10-14T02:35:28.196559+00:00,2.400000,-0.080940,
2025-10-14T02:35:28.201559+00:00,2.405000,0.009120,
2025-10-14T02:35:28.206559+00:00,2.410000,0.006080,
2025-10-14T02:35:28.211559+00:00,2.415000,-0.109060,
2025-10-14T02:35:28.216559+00:00,2.420000,-0.060800,
2025-10-14T02:35:28.221559+00:00,2.425000,0.006840,
2025-10-14T02:35:28.226559+00:00,2.430000,-0.092720,
2025-10-14T02:35:28.231559+00:00,2.435000,-0.101840,
2025-10-14T02:35:28.236559+00:00,2.440000,0.013300,
2025-10-14T02:35:28.241559+00:00,2.445000,-0.024320,
2025-10-14T02:35:28.246559+00:00,2.450000,-0.089680,
2025-10-14T02:35:28.251559+00:00,2.455000,-0.010260,
2025-10-14T02:35:28.256559+00:00,2.460000,-0.026980,
2025-10-14T02:35:28.261559+00:00,2.465000,-0.142500,
2025-10-14T02:35:28.266559+00:00,2.470000,-0.073720,
2025-10-14T02:35:28.271559+00:00,2.475000,0.019760,
2025-10-14T02:35:28.276559+00:00,2.480000,-0.082080,
2025-10-14T02:35:28.281559+00:00,2.485000,-0.118560,
2025-10-14T02:35:28.286559+00:00,2.490000,-0.012920,
2025-10-14T02:35:28.291559+00:00,2.495000,-0.017860,
2025-10-14T02:35:28.296559+00:00,2.500000,-0.055480,
2025-10-14T02:35:28.301559+00:00,2.505000,0.007220,
2025-10-14T02:35:28.306559+00:00,2.510000,-0.051680,
2025-10-14T02:35:28.311559+00:00,2.515000,-0.178600,
2025-10-14T02:35:28.316559+00:00,2.520000,-0.089300,
2025-10-14T02:35:28.321559+00:00,2.525000,0.022800,
2025-10-14T02:35:28.326559+00:00,2.530000,-0.069540,
2025-10-14T02:35:28.331559+00:00,2.535000,-0.090060,
2025-10-14T02:35:28.336559+00:00,2.540000,0.023940,
2025-10-14T02:35:28.341559+00:00,2.545000,-0.008360,
2025-10-14T02:35:28.346559+00:00,2.550000,-0.084740,
2025-10-14T02:35:28.351559+00:00,2.555000,-0.020140,
2025-10-14T02:35:28.356559+00:00,2.560000,-0.045220,
2025-10-14T02:35:28.361559+00:00,2.565000,-0.153520,
2025-10-14T02:35:28.366559+00:00,2.570000,-0.075240,
2025-10-14T02:35:28.371559+00:00,2.575000,0.028120,
2025-10-14T02:35:28.376559+00:00,2.580000,-0.055480,
2025-10-14T02:35:28.381559+00:00,2.585000,-0.079420,
2025-10-14T02:35:28.386559+00:00,2.590000,0.001140,
2025-10-14T02:35:28.391559+00:00,2.595000,-0.048260,
2025-10-14T02:35:28.396559+00:00,2.600000,-0.094240,
2025-10-14T02:35:28.401559+00:00,2.605000,-0.014820,
2025-10-14T02:35:28.406559+00:00,2.610000,-0.080180,
2025-10-14T02:35:28.411559+00:00,2.615000,-0.226860,
2025-10-14T02:35:28.416559+00:00,2.620000,-0.118940,
2025-10-14T02:35:28.421559+00:00,2.625000,0.042940,
2025-10-14T02:35:28.426559+00:00,2.630000,-0.016340,
2025-10-14T02:35:28.431559+00:00,2.635000,-0.055480,
2025-10-14T02:35:28.436559+00:00,2.640000,0.017100,
2025-10-14T02:35:28.441559+00:00,2.645000,-0.030020,
2025-10-14T02:35:28.446559+00:00,2.650000,-0.072960,
2025-10-14T02:35:28.451559+00:00,2.655000,0.031160,
2025-10-14T02:35:28.456559+00:00,2.660000,0.011020,
2025-10-14T02:35:28.461559+00:00,2.665000,-0.123120,
2025-10-14T02:35:28.466559+00:00,2.670000,-0.054340,
2025-10-14T02:35:28.471559+00:00,2.675000,0.055860,
2025-10-14T02:35:28.476559+00:00,2.680000,-0.020900,
2025-10-14T02:35:28.481559+00:00,2.685000,-0.043700,
2025-10-14T02:35:28.486559+00:00,2.690000,0.030020,
2025-10-14T02:35:28.491559+00:00,2.695000,-0.049400,
2025-10-14T02:35:28.496559+00:00,2.700000,-0.123880,
2025-10-14T02:35:28.501559+00:00,2.705000,-0.029640,
2025-10-14T02:35:28.506559+00:00,2.710000,-0.036480,
2025-10-14T02:35:28.511559+00:00,2.715000,-0.140220,
2025-10-14T02:35:28.516559+00:00,2.720000,-0.061180,
2025-10-14T02:35:28.521559+00:00,2.725000,0.017100,
2025-10-14T02:35:28.526559+00:00,2.730000,-0.095000,
2025-10-14T02:35:28.531559+00:00,2.735000,-0.110580,
2025-10-14T02:35:28.536559+00:00,2.740000,0.009880,
2025-10-14T02:35:28.541559+00:00,2.745000,-0.025840,
2025-10-14T02:35:28.546559+00:00,2.750000,-0.096520,
2025-10-14T02:35:28.551559+00:00,2.755000,-0.027360,
2025-10-14T02:35:28.556559+00:00,2.760000,-0.045220,
2025-10-14T02:35:28.561559+00:00,2.765000,-0.132240,
2025-10-14T02:35:28.566559+00:00,2.770000,-0.044460,
2025-10-14T02:35:28.571559+00:00,2.775000,0.025840,
2025-10-14T02:35:28.576559+00:00,2.780000,-0.087020,
2025-10-14T02:35:28.581559+00:00,2.785000,-0.102220,
2025-10-14T02:35:28.586559+00:00,2.790000,0.001520,
2025-10-14T02:35:28.591559+00:00,2.795000,-0.046740,
2025-10-14T02:35:28.596559+00:00,2.800000,-0.107920,
2025-10-14T02:35:28.601559+00:00,2.805000,-0.031160,
2025-10-14T02:35:28.606559+00:00,2.810000,-0.064600,
2025-10-14T02:35:28.611559+00:00,2.815000,-0.175940,
2025-10-14T02:35:28.616559+00:00,2.820000,-0.081320,
2025-10-14T02:35:28.621559+00:00,2.825000,0.023560,
2025-10-14T02:35:28.626559+00:00,2.830000,-0.066120,
2025-10-14T02:35:28.631559+00:00,2.835000,-0.082460,
2025-10-14T02:35:28.636559+00:00,2.840000,0.018620,
2025-10-14T02:35:28.641559+00:00,2.845000,-0.028880,
2025-10-14T02:35:28.646559+00:00,2.850000,-0.096140,
2025-10-14T02:35:28.651559+00:00,2.855000,-0.019000,
2025-10-14T02:35:28.656559+00:00,2.860000,-0.043320,
2025-10-14T02:35:28.661559+00:00,2.865000,-0.148960,
2025-10-14T02:35:28.666559+00:00,2.870000,-0.048640,
2025-10-14T02:35:28.671559+00:00,2.875000,0.063460,
2025-10-14T02:35:28.676559+00:00,2.880000,-0.026600,
2025-10-14T02:35:28.681559+00:00,2.885000,-0.052440,
2025-10-14T02:35:28.686559+00:00,2.890000,0.033440,
2025-10-14T02:35:28.691559+00:00,2.895000,-0.030780,
2025-10-14T02:35:28.696559+00:00,2.900000,-0.110200,
2025-10-14T02:35:28.701559+00:00,2.905000,-0.036480,
2025-10-14T02:35:28.706559+00:00,2.910000,-0.051680,
2025-10-14T02:35:28.711559+00:00,2.915000,-0.133380,
2025-10-14T02:35:28.716559+00:00,2.920000,-0.027740,
2025-10-14T02:35:28.721559+00:00,2.925000,0.046740,
2025-10-14T02:35:28.726559+00:00,2.930000,-0.087400,
2025-10-14T02:35:28.731559+00:00,2.935000,-0.117040,
2025-10-14T02:35:28.736559+00:00,2.940000,-0.003040,
2025-10-14T02:35:28.741559+00:00,2.945000,-0.042180,
2025-10-14T02:35:28.746559+00:00,2.950000,-0.109820,
2025-10-14T02:35:28.751559+00:00,2.955000,-0.033060,
2025-10-14T02:35:28.756559+00:00,2.960000,-0.049780,
2025-10-14T02:35:28.761559+00:00,2.965000,-0.143640,
2025-10-14T02:35:28.766559+00:00,2.970000,-0.055860,
2025-10-14T02:35:28.771559+00:00,2.975000,0.021660,
2025-10-14T02:35:28.776559+00:00,2.980000,-0.086260,
2025-10-14T02:35:28.781559+00:00,2.985000,-0.088920,
2025-10-14T02:35:28.786559+00:00,2.990000,0.029260,
2025-10-14T02:35:28.791559+00:00,2.995000,-0.016340,
2025-10-14T02:35:28.796559+00:00,3.000000,-0.075240,
2025-10-14T02:35:28.801559+00:00,3.005000,0.033440,
2025-10-14T02:35:28.806559+00:00,3.010000,0.052440,
2025-10-14T02:35:28.811559+00:00,3.015000,-0.036860,
2025-10-14T02:35:28.816559+00:00,3.020000,-0.000380,
2025-10-14T02:35:28.821559+00:00,3.025000,0.006080,
2025-10-14T02:35:28.826559+00:00,3.030000,-0.131100,
2025-10-14T02:35:28.831559+00:00,3.035000,-0.111720,
2025-10-14T02:35:28.836559+00:00,3.040000,0.025840,
2025-10-14T02:35:28.841559+00:00,3.045000,-0.033060,
2025-10-14T02:35:28.846559+00:00,3.050000,-0.113620,
2025-10-14T02:35:28.851559+00:00,3.055000,-0.023940,
2025-10-14T02:35:28.856559+00:00,3.060000,-0.023180,
2025-10-14T02:35:28.861559+00:00,3.065000,-0.114000,
2025-10-14T02:35:28.866559+00:00,3.070000,-0.027740,
2025-10-14T02:35:28.871559+00:00,3.075000,0.047120,
2025-10-14T02:35:28.876559+00:00,3.080000,-0.065740,
2025-10-14T02:35:28.881559+00:00,3.085000,-0.080180,
2025-10-14T02:35:28.886559+00:00,3.090000,0.031540,
2025-10-14T02:35:28.891559+00:00,3.095000,-0.015580,
2025-10-14T02:35:28.896559+00:00,3.100000,-0.077900,
2025-10-14T02:35:28.901559+00:00,3.105000,0.015580,
2025-10-14T02:35:28.906559+00:00,3.110000,0.026600,
2025-10-14T02:35:28.911559+00:00,3.115000,-0.042180,
2025-10-14T02:35:28.916559+00:00,3.120000,0.027360,
2025-10-14T02:35:28.921559+00:00,3.125000,0.032680,
2025-10-14T02:35:28.926559+00:00,3.130000,-0.140600,
2025-10-14T02:35:28.931559+00:00,3.135000,-0.149720,
2025-10-14T02:35:28.936559+00:00,3.140000,0.003420,
2025-10-14T02:35:28.941559+00:00,3.145000,-0.009120,
2025-10-14T02:35:28.946559+00:00,3.150000,-0.056620,
2025-10-14T02:35:28.951559+00:00,3.155000,0.035720,
2025-10-14T02:35:28.956559+00:00,3.160000,0.029260,
2025-10-14T02:35:28.961559+00:00,3.165000,-0.072200,
2025-10-14T02:35:28.966559+00:00,3.170000,-0.017860,
2025-10-14T02:35:28.971559+00:00,3.175000,0.024700,
2025-10-14T02:35:28.976559+00:00,3.180000,-0.081700,
2025-10-14T02:35:28.981559+00:00,3.185000,-0.076000,
2025-10-14T02:35:28.986559+00:00,3.190000,0.004940,
2025-10-14T02:35:28.991559+00:00,3.195000,-0.106400,
2025-10-14T02:35:28.996559+00:00,3.200000,-0.182780,
2025-10-14T02:35:29.001559+00:00,3.205000,-0.034200,
2025-10-14T02:35:29.006559+00:00,3.210000,0.031920,
2025-10-14T02:35:29.011559+00:00,3.215000,-0.043700,
2025-10-14T02:35:29.016559+00:00,3.220000,-0.012540,
2025-10-14T02:35:29.021559+00:00,3.225000,-0.000760,
2025-10-14T02:35:29.026559+00:00,3.230000,-0.118940,
2025-10-14T02:35:29.031559+00:00,3.235000,-0.107160,
2025-10-14T02:35:29.036559+00:00,3.240000,0.001520,
2025-10-14T02:35:29.041559+00:00,3.245000,-0.067260,
2025-10-14T02:35:29.046559+00:00,3.250000,-0.134520,
2025-10-14T02:35:29.051559+00:00,3.255000,-0.027740,
2025-10-14T02:35:29.056559+00:00,3.260000,-0.001900,
2025-10-14T02:35:29.061559+00:00,3.265000,-0.073720,
2025-10-14T02:35:29.066559+00:00,3.270000,-0.021280,
2025-10-14T02:35:29.071559+00:00,3.275000,-0.011400,
2025-10-14T02:35:29.076559+00:00,3.280000,-0.138320,
2025-10-14T02:35:29.081559+00:00,3.285000,-0.097280,
2025-10-14T02:35:29.086559+00:00,3.290000,0.057380,
2025-10-14T02:35:29.091559+00:00,3.295000,-0.004940,
2025-10-14T02:35:29.096559+00:00,3.300000,-0.110580,
2025-10-14T02:35:29.101559+00:00,3.305000,-0.036100,
2025-10-14T02:35:29.106559+00:00,3.310000,-0.010640,
2025-10-14T02:35:29.111559+00:00,3.315000,-0.067260,
2025-10-14T02:35:29.116559+00:00,3.320000,0.001140,
2025-10-14T02:35:29.121559+00:00,3.325000,0.016720,
2025-10-14T02:35:29.126559+00:00,3.330000,-0.127300,
2025-10-14T02:35:29.131559+00:00,3.335000,-0.105640,
2025-10-14T02:35:29.136559+00:00,3.340000,0.052060,
2025-10-14T02:35:29.141559+00:00,3.345000,0.019000,
2025-10-14T02:35:29.146559+00:00,3.350000,-0.058140,
2025-10-14T02:35:29.151559+00:00,3.355000,0.029260,
2025-10-14T02:35:29.156559+00:00,3.360000,0.042940,
2025-10-14T02:35:29.161559+00:00,3.365000,-0.046740,
2025-10-14T02:35:29.166559+00:00,3.370000,-0.024320,
2025-10-14T02:35:29.171559+00:00,3.375000,-0.020140,
2025-10-14T02:35:29.176559+00:00,3.380000,-0.128440,
2025-10-14T02:35:29.181559+00:00,3.385000,-0.093100,
2025-10-14T02:35:29.186559+00:00,3.390000,0.002280,
2025-10-14T02:35:29.191559+00:00,3.395000,-0.099940,
2025-10-14T02:35:29.196559+00:00,3.400000,-0.167580,
2025-10-14T02:35:29.201559+00:00,3.405000,-0.028120,
2025-10-14T02:35:29.206559+00:00,3.410000,0.023180,
2025-10-14T02:35:29.211559+00:00,3.415000,-0.049020,
2025-10-14T02:35:29.216559+00:00,3.420000,-0.009880,
2025-10-14T02:35:29.221559+00:00,3.425000,-0.006840,
2025-10-14T02:35:29.226559+00:00,3.430000,-0.133380,
2025-10-14T02:35:29.231559+00:00,3.435000,-0.088920,
2025-10-14T02:35:29.236559+00:00,3.440000,0.066500,
2025-10-14T02:35:29.241559+00:00,3.445000,0.021280,
2025-10-14T02:35:29.246559+00:00,3.450000,-0.054340,
2025-10-14T02:35:29.251559+00:00,3.455000,0.031160,
2025-10-14T02:35:29.256559+00:00,3.460000,0.028880,
2025-10-14T02:35:29.261559+00:00,3.465000,-0.082840,
2025-10-14T02:35:29.266559+00:00,3.470000,-0.061940,
2025-10-14T02:35:29.271559+00:00,3.475000,-0.031920,
2025-10-14T02:35:29.276559+00:00,3.480000,-0.108680,
2025-10-14T02:35:29.281559+00:00,3.485000,-0.065740,
2025-10-14T02:35:29.286559+00:00,3.490000,0.032680,
2025-10-14T02:35:29.291559+00:00,3.495000,-0.058140,
2025-10-14T02:35:29.296559+00:00,3.500000,-0.127680,
2025-10-14T02:35:29.301559+00:00,3.505000,-0.022800,
2025-10-14T02:35:29.306559+00:00,3.510000,-0.022800,
2025-10-14T02:35:29.311559+00:00,3.515000,-0.128440,
2025-10-14T02:35:29.316559+00:00,3.520000,-0.069920,
2025-10-14T02:35:29.321559+00:00,3.525000,0.000760,
2025-10-14T02:35:29.326559+00:00,3.530000,-0.070680,
2025-10-14T02:35:29.331559+00:00,3.535000,-0.043700,
2025-10-14T02:35:29.336559+00:00,3.540000,0.049400,
2025-10-14T02:35:29.341559+00:00,3.545000,-0.038760,
2025-10-14T02:35:29.346559+00:00,3.550000,-0.112480,
2025-10-14T02:35:29.351559+00:00,3.555000,-0.007220,
2025-10-14T02:35:29.356559+00:00,3.560000,0.011400,
2025-10-14T02:35:29.361559+00:00,3.565000,-0.060800,
2025-10-14T02:35:29.366559+00:00,3.570000,0.007980,
2025-10-14T02:35:29.371559+00:00,3.575000,0.041040,
2025-10-14T02:35:29.376559+00:00,3.580000,-0.080180,
2025-10-14T02:35:29.381559+00:00,3.585000,-0.082460,
2025-10-14T02:35:29.386559+00:00,3.590000,0.011020,
2025-10-14T02:35:29.391559+00:00,3.595000,-0.052440,
2025-10-14T02:35:29.396559+00:00,3.600000,-0.097280,
2025-10-14T02:35:29.401559+00:00,3.605000,0.012160,
2025-10-14T02:35:29.406559+00:00,3.610000,0.008740,
2025-10-14T02:35:29.411559+00:00,3.615000,-0.093860,
2025-10-14T02:35:29.416559+00:00,3.620000,-0.044460,
2025-10-14T02:35:29.421559+00:00,3.625000,-0.005320,
2025-10-14T02:35:29.426559+00:00,3.630000,-0.097660,
2025-10-14T02:35:29.431559+00:00,3.635000,-0.050160,
2025-10-14T02:35:29.436559+00:00,3.640000,0.087780,
2025-10-14T02:35:29.441559+00:00,3.645000,0.020140,
2025-10-14T02:35:29.446559+00:00,3.650000,-0.068020,
2025-10-14T02:35:29.451559+00:00,3.655000,0.018620,
2025-10-14T02:35:29.456559+00:00,3.660000,0.032680,
2025-10-14T02:35:29.461559+00:00,3.665000,-0.046360,
2025-10-14T02:35:29.466559+00:00,3.670000,-0.006080,
2025-10-14T02:35:29.471559+00:00,3.675000,-0.007220,
2025-10-14T02:35:29.476559+00:00,3.680000,-0.137180,
2025-10-14T02:35:29.481559+00:00,3.685000,-0.103360,
2025-10-14T02:35:29.486559+00:00,3.690000,0.039140,
2025-10-14T02:35:29.491559+00:00,3.695000,-0.015200,
2025-10-14T02:35:29.496559+00:00,3.700000,-0.096520,
2025-10-14T02:35:29.501559+00:00,3.705000,-0.018240,
2025-10-14T02:35:29.506559+00:00,3.710000,-0.005320,
2025-10-14T02:35:29.511559+00:00,3.715000,-0.060420,
2025-10-14T02:35:29.516559+00:00,3.720000,0.016340,
2025-10-14T02:35:29.521559+00:00,3.725000,0.050540,
2025-10-14T02:35:29.526559+00:00,3.730000,-0.063080,
2025-10-14T02:35:29.531559+00:00,3.735000,-0.057760,
2025-10-14T02:35:29.536559+00:00,3.740000,0.019380,
2025-10-14T02:35:29.541559+00:00,3.745000,-0.071820,
2025-10-14T02:35:29.546559+00:00,3.750000,-0.118560,
2025-10-14T02:35:29.551559+00:00,3.755000,0.009120,
2025-10-14T02:35:29.556559+00:00,3.760000,0.011020,
2025-10-14T02:35:29.561559+00:00,3.765000,-0.093100,
2025-10-14T02:35:29.566559+00:00,3.770000,-0.027360,
2025-10-14T02:35:29.571559+00:00,3.775000,0.034580,
2025-10-14T02:35:29.576559+00:00,3.780000,-0.057000,
2025-10-14T02:35:29.581559+00:00,3.785000,-0.048640,
2025-10-14T02:35:29.586559+00:00,3.790000,0.028500,
2025-10-14T02:35:29.591559+00:00,3.795000,-0.063080,
2025-10-14T02:35:29.596559+00:00,3.800000,-0.126540,
2025-10-14T02:35:29.601559+00:00,3.805000,-0.029640,
2025-10-14T02:35:29.606559+00:00,3.810000,-0.040280,
2025-10-14T02:35:29.611559+00:00,3.815000,-0.118560,
2025-10-14T02:35:29.616559+00:00,3.820000,-0.021660,
2025-10-14T02:35:29.621559+00:00,3.825000,0.051300,
2025-10-14T02:35:29.626559+00:00,3.830000,-0.051680,
2025-10-14T02:35:29.631559+00:00,3.835000,-0.063460,
2025-10-14T02:35:29.636559+00:00,3.840000,0.001520,
2025-10-14T02:35:29.641559+00:00,3.845000,-0.087780,
2025-10-14T02:35:29.646559+00:00,3.850000,-0.134900,
2025-10-14T02:35:29.651559+00:00,3.855000,-0.006080,
2025-10-14T02:35:29.656559+00:00,3.860000,0.012160,
2025-10-14T02:35:29.661559+00:00,3.865000,-0.074100,
2025-10-14T02:35:29.666559+00:00,3.870000,-0.023940,
2025-10-14T02:35:29.671559+00:00,3.875000,0.006080,
2025-10-14T02:35:29.676559+00:00,3.880000,-0.086640,
2025-10-14T02:35:29.681559+00:00,3.885000,-0.050540,
2025-10-14T02:35:29.686559+00:00,3.890000,0.045600,
2025-10-14T02:35:29.691559+00:00,3.895000,-0.051300,
2025-10-14T02:35:29.696559+00:00,3.900000,-0.121220,
2025-10-14T02:35:29.701559+00:00,3.905000,-0.012540,
2025-10-14T02:35:29.706559+00:00,3.910000,0.003420,
2025-10-14T02:35:29.711559+00:00,3.915000,-0.062700,
2025-10-14T02:35:29.716559+00:00,3.920000,0.006080,
2025-10-14T02:35:29.721559+00:00,3.925000,0.028500,
2025-10-14T02:35:29.726559+00:00,3.930000,-0.100320,
2025-10-14T02:35:29.731559+00:00,3.935000,-0.083600,
2025-10-14T02:35:29.736559+00:00,3.940000,0.036480,
2025-10-14T02:35:29.741559+00:00,3.945000,-0.020520,
2025-10-14T02:35:29.746559+00:00,3.950000,-0.079420,
2025-10-14T02:35:29.751559+00:00,3.955000,0.011020,
2025-10-14T02:35:29.756559+00:00,3.960000,-0.000760,
2025-10-14T02:35:29.761559+00:00,3.965000,-0.082080,
2025-10-14T02:35:29.766559+00:00,3.970000,-0.014060,
2025-10-14T02:35:29.771559+00:00,3.975000,0.017480,
2025-10-14T02:35:29.776559+00:00,3.980000,-0.097280,
2025-10-14T02:35:29.781559+00:00,3.985000,-0.095760,
2025-10-14T02:35:29.786559+00:00,3.990000,-0.014440,
2025-10-14T02:35:29.791559+00:00,3.995000,-0.082840,
2025-10-14T02:35:29.796559+00:00,4.000000,-0.109820,
2025-10-14T02:35:29.801559+00:00,4.005000,0.005700,
2025-10-14T02:35:29.806559+00:00,4.010000,-0.009120,
2025-10-14T02:35:29.811559+00:00,4.015000,-0.092340,
2025-10-14T02:35:29.816559+00:00,4.020000,0.006840,
2025-10-14T02:35:29.821559+00:00,4.025000,0.064600,
2025-10-14T02:35:29.826559+00:00,4.030000,-0.062320,
2025-10-14T02:35:29.831559+00:00,4.035000,-0.071060,
2025-10-14T02:35:29.836559+00:00,4.040000,0.036100,
2025-10-14T02:35:29.841559+00:00,4.045000,-0.022420,
2025-10-14T02:35:29.846559+00:00,4.050000,-0.096140,
2025-10-14T02:35:29.851559+00:00,4.055000,-0.006840,
2025-10-14T02:35:29.856559+00:00,4.060000,0.021660,
2025-10-14T02:35:29.861559+00:00,4.065000,-0.018620,
2025-10-14T02:35:29.866559+00:00,4.070000,0.030780,
2025-10-14T02:35:29.871559+00:00,4.075000,0.001900,
2025-10-14T02:35:29.876559+00:00,4.080000,-0.142120,
2025-10-14T02:35:29.881559+00:00,4.085000,-0.106400,
2025-10-14T02:35:29.886559+00:00,4.090000,0.009880,
2025-10-14T02:35:29.891559+00:00,4.095000,-0.074100,
2025-10-14T02:35:29.896559+00:00,4.100000,-0.136800,
2025-10-14T02:35:29.901559+00:00,4.105000,-0.017860,
2025-10-14T02:35:29.906559+00:00,4.110000,0.005320,
2025-10-14T02:35:29.911559+00:00,4.115000,-0.048260,
2025-10-14T02:35:29.916559+00:00,4.120000,0.031920,
2025-10-14T02:35:29.921559+00:00,4.125000,0.053200,
2025-10-14T02:35:29.926559+00:00,4.130000,-0.088920,
2025-10-14T02:35:29.931559+00:00,4.135000,-0.102600,
2025-10-14T02:35:29.936559+00:00,4.140000,-0.011020,
2025-10-14T02:35:29.941559+00:00,4.145000,-0.063840,
2025-10-14T02:35:29.946559+00:00,4.150000,-0.079040,
2025-10-14T02:35:29.951559+00:00,4.155000,0.047880,
2025-10-14T02:35:29.956559+00:00,4.160000,0.027740,
2025-10-14T02:35:29.961559+00:00,4.165000,-0.070680,
2025-10-14T02:35:29.966559+00:00,4.170000,0.015580,
2025-10-14T02:35:29.971559+00:00,4.175000,0.078280,
2025-10-14T02:35:29.976559+00:00,4.180000,-0.041420,
2025-10-14T02:35:29.981559+00:00,4.185000,-0.069540,
2025-10-14T02:35:29.986559+00:00,4.190000,-0.004560,
2025-10-14T02:35:29.991559+00:00,4.195000,-0.069540,
2025-10-14T02:35:29.996559+00:00,4.200000,-0.099180,
2025-10-14T02:35:30.001559+00:00,4.205000,-0.000380,
2025-10-14T02:35:30.006559+00:00,4.210000,-0.023940,
2025-10-14T02:35:30.011559+00:00,4.215000,-0.088920,
2025-10-14T02:35:30.016559+00:00,4.220000,0.018620,
2025-10-14T02:35:30.021559+00:00,4.225000,0.051680,
2025-10-14T02:35:30.026559+00:00,4.230000,-0.094620,
2025-10-14T02:35:30.031559+00:00,4.235000,-0.096900,
2025-10-14T02:35:30.036559+00:00,4.240000,0.023940,
2025-10-14T02:35:30.041559+00:00,4.245000,-0.016720,
2025-10-14T02:35:30.046559+00:00,4.250000,-0.067640,
2025-10-14T02:35:30.051559+00:00,4.255000,-0.003420,
2025-10-14T02:35:30.056559+00:00,4.260000,-0.046360,
2025-10-14T02:35:30.061559+00:00,4.265000,-0.121600,
2025-10-14T02:35:30.066559+00:00,4.270000,-0.024320,
2025-10-14T02:35:30.071559+00:00,4.275000,-0.000380,
2025-10-14T02:35:30.076559+00:00,4.280000,-0.139840,
2025-10-14T02:35:30.081559+00:00,4.285000,-0.123500,
2025-10-14T02:35:30.086559+00:00,4.290000,0.012540,
2025-10-14T02:35:30.091559+00:00,4.295000,-0.027360,
2025-10-14T02:35:30.096559+00:00,4.300000,-0.085120,
2025-10-14T02:35:30.101559+00:00,4.305000,-0.024700,
2025-10-14T02:35:30.106559+00:00,4.310000,-0.056240,
2025-10-14T02:35:30.111559+00:00,4.315000,-0.102980,
2025-10-14T02:35:30.116559+00:00,4.320000,0.021660,
2025-10-14T02:35:30.121559+00:00,4.325000,0.073340,
2025-10-14T02:35:30.126559+00:00,4.330000,-0.057380,
2025-10-14T02:35:30.131559+00:00,4.335000,-0.067640,
2025-10-14T02:35:30.136559+00:00,4.340000,0.000000,
2025-10-14T02:35:30.141559+00:00,4.345000,-0.092340,
2025-10-14T02:35:30.146559+00:00,4.350000,-0.149720,
2025-10-14T02:35:30.151559+00:00,4.355000,-0.042940,
2025-10-14T02:35:30.156559+00:00,4.360000,-0.038000,
2025-10-14T02:35:30.161559+00:00,4.365000,-0.090440,
2025-10-14T02:35:30.166559+00:00,4.370000,0.000000,
2025-10-14T02:35:30.171559+00:00,4.375000,0.030780,
2025-10-14T02:35:30.176559+00:00,4.380000,-0.091580,
2025-10-14T02:35:30.181559+00:00,4.385000,-0.083980,
2025-10-14T02:35:30.186559+00:00,4.390000,0.001140,
2025-10-14T02:35:30.191559+00:00,4.395000,-0.071060,
2025-10-14T02:35:30.196559+00:00,4.400000,-0.099180,
2025-10-14T02:35:30.201559+00:00,4.405000,0.023940,
2025-10-14T02:35:30.206559+00:00,4.410000,0.018620,
2025-10-14T02:35:30.211559+00:00,4.415000,-0.069920,
2025-10-14T02:35:30.216559+00:00,4.420000,-0.012160,
2025-10-14T02:35:30.221559+00:00,4.425000,-0.003420,
2025-10-14T02:35:30.226559+00:00,4.430000,-0.136800,
2025-10-14T02:35:30.231559+00:00,4.435000,-0.126160,
2025-10-14T02:35:30.236559+00:00,4.440000,-0.019000,
2025-10-14T02:35:30.241559+00:00,4.445000,-0.074860,
2025-10-14T02:35:30.246559+00:00,4.450000,-0.110960,
2025-10-14T02:35:30.251559+00:00,4.455000,-0.002660,
2025-10-14T02:35:30.256559+00:00,4.460000,-0.011780,
2025-10-14T02:35:30.261559+00:00,4.465000,-0.082080,
2025-10-14T02:35:30.266559+00:00,4.470000,0.013300,
2025-10-14T02:35:30.271559+00:00,4.475000,0.059660,
2025-10-14T02:35:30.276559+00:00,4.480000,-0.063080,
2025-10-14T02:35:30.281559+00:00,4.485000,-0.076380,
2025-10-14T02:35:30.286559+00:00,4.490000,-0.013300,
2025-10-14T02:35:30.291559+00:00,4.495000,-0.098040,
2025-10-14T02:35:30.296559+00:00,4.500000,-0.125780,
2025-10-14T02:35:30.301559+00:00,4.505000,0.002660,
2025-10-14T02:35:30.306559+00:00,4.510000,-0.006080,
2025-10-14T02:35:30.311559+00:00,4.515000,-0.089680,
2025-10-14T02:35:30.316559+00:00,4.520000,-0.001520,
2025-10-14T02:35:30.321559+00:00,4.525000,0.054340,
2025-10-14T02:35:30.326559+00:00,4.530000,-0.049780,
2025-10-14T02:35:30.331559+00:00,4.535000,-0.061560,
2025-10-14T02:35:30.336559+00:00,4.540000,-0.014060,
2025-10-14T02:35:30.341559+00:00,4.545000,-0.105260,
2025-10-14T02:35:30.346559+00:00,4.550000,-0.125400,
2025-10-14T02:35:30.351559+00:00,4.555000,-0.007980,
2025-10-14T02:35:30.356559+00:00,4.560000,-0.045600,
2025-10-14T02:35:30.361559+00:00,4.565000,-0.134900,
2025-10-14T02:35:30.366559+00:00,4.570000,-0.017860,
2025-10-14T02:35:30.371559+00:00,4.575000,0.064600,
2025-10-14T02:35:30.376559+00:00,4.580000,-0.041800,
2025-10-14T02:35:30.381559+00:00,4.585000,-0.064600,
2025-10-14T02:35:30.386559+00:00,4.590000,-0.015200,
2025-10-14T02:35:30.391559+00:00,4.595000,-0.096140,
2025-10-14T02:35:30.396559+00:00,4.600000,-0.107540,
2025-10-14T02:35:30.401559+00:00,4.605000,0.019000,
2025-10-14T02:35:30.406559+00:00,4.610000,-0.003800,
2025-10-14T02:35:30.411559+00:00,4.615000,-0.083980,
2025-10-14T02:35:30.416559+00:00,4.620000,0.017100,
2025-10-14T02:35:30.421559+00:00,4.625000,0.069540,
2025-10-14T02:35:30.426559+00:00,4.630000,-0.058520,
2025-10-14T02:35:30.431559+00:00,4.635000,-0.083600,
2025-10-14T02:35:30.436559+00:00,4.640000,-0.035720,
2025-10-14T02:35:30.441559+00:00,4.645000,-0.117800,
2025-10-14T02:35:30.446559+00:00,4.650000,-0.118180,
2025-10-14T02:35:30.451559+00:00,4.655000,0.033820,
2025-10-14T02:35:30.456559+00:00,4.660000,0.028880,
2025-10-14T02:35:30.461559+00:00,4.665000,-0.059660,
2025-10-14T02:35:30.466559+00:00,4.670000,0.018620,
2025-10-14T02:35:30.471559+00:00,4.675000,0.058140,
2025-10-14T02:35:30.476559+00:00,4.680000,-0.058140,
2025-10-14T02:35:30.481559+00:00,4.685000,-0.064980,
2025-10-14T02:35:30.486559+00:00,4.690000,0.000380,
2025-10-14T02:35:30.491559+00:00,4.695000,-0.071820,
2025-10-14T02:35:30.496559+00:00,4.700000,-0.091960,
2025-10-14T02:35:30.501559+00:00,4.705000,0.006840,
2025-10-14T02:35:30.506559+00:00,4.710000,-0.028500,
2025-10-14T02:35:30.511559+00:00,4.715000,-0.102220,
2025-10-14T02:35:30.516559+00:00,4.720000,-0.004560,
2025-10-14T02:35:30.521559+00:00,4.725000,0.022420,
2025-10-14T02:35:30.526559+00:00,4.730000,-0.122360,
2025-10-14T02:35:30.531559+00:00,4.735000,-0.133380,
2025-10-14T02:35:30.536559+00:00,4.740000,-0.033060,
2025-10-14T02:35:30.541559+00:00,4.745000,-0.061560,
2025-10-14T02:35:30.546559+00:00,4.750000,-0.063460,
2025-10-14T02:35:30.551559+00:00,4.755000,0.032680,
2025-10-14T02:35:30.556559+00:00,4.760000,-0.012160,
2025-10-14T02:35:30.561559+00:00,4.765000,-0.097280,
2025-10-14T02:35:30.566559+00:00,4.770000,0.001520,
2025-10-14T02:35:30.571559+00:00,4.775000,0.048260,
2025-10-14T02:35:30.576559+00:00,4.780000,-0.077140,
2025-10-14T02:35:30.581559+00:00,4.785000,-0.089300,
2025-10-14T02:35:30.586559+00:00,4.790000,-0.011400,
2025-10-14T02:35:30.591559+00:00,4.795000,-0.065360,
2025-10-14T02:35:30.596559+00:00,4.800000,-0.074480,
2025-10-14T02:35:30.601559+00:00,4.805000,0.030780,
2025-10-14T02:35:30.606559+00:00,4.810000,-0.015200,
2025-10-14T02:35:30.611559+00:00,4.815000,-0.117040,
2025-10-14T02:35:30.616559+00:00,4.820000,-0.026220,
2025-10-14T02:35:30.621559+00:00,4.825000,0.039900,
2025-10-14T02:35:30.626559+00:00,4.830000,-0.055480,
2025-10-14T02:35:30.631559+00:00,4.835000,-0.055480,
2025-10-14T02:35:30.636559+00:00,4.840000,-0.001900,
2025-10-14T02:35:30.641559+00:00,4.845000,-0.096900,
2025-10-14T02:35:30.646559+00:00,4.850000,-0.120080,
2025-10-14T02:35:30.651559+00:00,4.855000,0.004940,
2025-10-14T02:35:30.656559+00:00,4.860000,-0.021280,
2025-10-14T02:35:30.661559+00:00,4.865000,-0.125400,
2025-10-14T02:35:30.666559+00:00,4.870000,-0.053960,
2025-10-14T02:35:30.671559+00:00,4.875000,-0.005320,
2025-10-14T02:35:30.676559+00:00,4.880000,-0.101080,
2025-10-14T02:35:30.681559+00:00,4.885000,-0.090440,
2025-10-14T02:35:30.686559+00:00,4.890000,-0.030780,
2025-10-14T02:35:30.691559+00:00,4.895000,-0.120840,
2025-10-14T02:35:30.696559+00:00,4.900000,-0.139840,
2025-10-14T02:35:30.701559+00:00,4.905000,-0.013300,
2025-10-14T02:35:30.706559+00:00,4.910000,-0.030400,
2025-10-14T02:35:30.711559+00:00,4.915000,-0.103740,
2025-10-14T02:35:30.716559+00:00,4.920000,-0.006460,
2025-10-14T02:35:30.721559+00:00,4.925000,0.020140,
2025-10-14T02:35:30.726559+00:00,4.930000,-0.113620,
2025-10-14T02:35:30.731559+00:00,4.935000,-0.096520,
2025-10-14T02:35:30.736559+00:00,4.940000,0.019000,
2025-10-14T02:35:30.741559+00:00,4.945000,-0.031540,
2025-10-14T02:35:30.746559+00:00,4.950000,-0.073720,
2025-10-14T02:35:30.751559+00:00,4.955000,-0.007220,
2025-10-14T02:35:30.756559+00:00,4.960000,-0.060040,
2025-10-14T02:35:30.761559+00:00,4.965000,-0.124640,
2025-10-14T02:35:30.766559+00:00,4.970000,0.002660,
2025-10-14T02:35:30.771559+00:00,4.975000,0.076000,
2025-10-14T02:35:30.776559+00:00,4.980000,-0.021280,
2025-10-14T02:35:30.781559+00:00,4.985000,-0.032680,
2025-10-14T02:35:30.786559+00:00,4.990000,-0.004560,
2025-10-14T02:35:30.791559+00:00,4.995000,-0.114000,
2025-10-14T02:35:30.796559+00:00,5.000000,-0.133760,
2025-10-14T02:35:30.801559+00:00,5.005000,-0.003040,
2025-10-14T02:35:30.806559+00:00,5.010000,-0.022420,
2025-10-14T02:35:30.811559+00:00,5.015000,-0.109440,
2025-10-14T02:35:30.816559+00:00,5.020000,-0.026220,
2025-10-14T02:35:30.821559+00:00,5.025000,0.015200,
2025-10-14T02:35:30.826559+00:00,5.030000,-0.080940,
2025-10-14T02:35:30.831559+00:00,5.035000,-0.056240,
2025-10-14T02:35:30.836559+00:00,5.040000,0.017860,
2025-10-14T02:35:30.841559+00:00,5.045000,-0.061940,
2025-10-14T02:35:30.846559+00:00,5.050000,-0.085500,
2025-10-14T02:35:30.851559+00:00,5.055000,0.012160,
2025-10-14T02:35:30.856559+00:00,5.060000,-0.041420,
2025-10-14T02:35:30.861559+00:00,5.065000,-0.133380,
2025-10-14T02:35:30.866559+00:00,5.070000,-0.023180,
2025-10-14T02:35:30.871559+00:00,5.075000,0.053580,
2025-10-14T02:35:30.876559+00:00,5.080000,-0.041040,
2025-10-14T02:35:30.881559+00:00,5.085000,-0.047880,
2025-10-14T02:35:30.886559+00:00,5.090000,0.001140,
2025-10-14T02:35:30.891559+00:00,5.095000,-0.085500,
2025-10-14T02:35:30.896559+00:00,5.100000,-0.108300,
2025-10-14T02:35:30.901559+00:00,5.105000,0.003040,
2025-10-14T02:35:30.906559+00:00,5.110000,-0.016720,
2025-10-14T02:35:30.911559+00:00,5.115000,-0.093860,
2025-10-14T02:35:30.916559+00:00,5.120000,-0.021280,
2025-10-14T02:35:30.921559+00:00,5.125000,-0.007600,
2025-10-14T02:35:30.926559+00:00,5.130000,-0.121220,
2025-10-14T02:35:30.931559+00:00,5.135000,-0.088160,
2025-10-14T02:35:30.936559+00:00,5.140000,0.005700,
2025-10-14T02:35:30.941559+00:00,5.145000,-0.068020,
2025-10-14T02:35:30.946559+00:00,5.150000,-0.084740,
2025-10-14T02:35:30.951559+00:00,5.155000,0.038380,
2025-10-14T02:35:30.956559+00:00,5.160000,0.008360,
2025-10-14T02:35:30.961559+00:00,5.165000,-0.092720,
2025-10-14T02:35:30.966559+00:00,5.170000,-0.023180,
2025-10-14T02:35:30.971559+00:00,5.175000,0.015960,
2025-10-14T02:35:30.976559+00:00,5.180000,-0.078280,
2025-10-14T02:35:30.981559+00:00,5.185000,-0.061560,
2025-10-14T02:35:30.986559+00:00,5.190000,-0.006080,
2025-10-14T02:35:30.991559+00:00,5.195000,-0.098800,
2025-10-14T02:35:30.996559+00:00,5.200000,-0.112480,
2025-10-14T02:35:31.001559+00:00,5.205000,0.010640,
2025-10-14T02:35:31.006559+00:00,5.210000,-0.023940,
2025-10-14T02:35:31.011559+00:00,5.215000,-0.121220,
2025-10-14T02:35:31.016559+00:00,5.220000,-0.041420,
2025-10-14T02:35:31.021559+00:00,5.225000,0.005320,
2025-10-14T02:35:31.026559+00:00,5.230000,-0.081320,
2025-10-14T02:35:31.031559+00:00,5.235000,-0.052060,
2025-10-14T02:35:31.036559+00:00,5.240000,0.010640,
2025-10-14T02:35:31.041559+00:00,5.245000,-0.088540,
2025-10-14T02:35:31.046559+00:00,5.250000,-0.103360,
2025-10-14T02:35:31.051559+00:00,5.255000,0.043320,
2025-10-14T02:35:31.056559+00:00,5.260000,0.036860,
2025-10-14T02:35:31.061559+00:00,5.265000,-0.066500,
2025-10-14T02:35:31.066559+00:00,5.270000,-0.019760,
2025-10-14T02:35:31.071559+00:00,5.275000,0.005320,
2025-10-14T02:35:31.076559+00:00,5.280000,-0.076380,
2025-10-14T02:35:31.081559+00:00,5.285000,-0.041420,
2025-10-14T02:35:31.086559+00:00,5.290000,0.016340,
2025-10-14T02:35:31.091559+00:00,5.295000,-0.095000,
2025-10-14T02:35:31.096559+00:00,5.300000,-0.125400,
2025-10-14T02:35:31.101559+00:00,5.305000,0.000000,
2025-10-14T02:35:31.106559+00:00,5.310000,-0.015580,
2025-10-14T02:35:31.111559+00:00,5.315000,-0.087780,
2025-10-14T02:35:31.116559+00:00,5.320000,0.002280,
2025-10-14T02:35:31.121559+00:00,5.325000,0.029640,
2025-10-14T02:35:31.126559+00:00,5.330000,-0.077900,
2025-10-14T02:35:31.131559+00:00,5.335000,-0.042180,
2025-10-14T02:35:31.136559+00:00,5.340000,0.042560,
2025-10-14T02:35:31.141559+00:00,5.345000,-0.056620,
2025-10-14T02:35:31.146559+00:00,5.350000,-0.109440,
2025-10-14T02:35:31.151559+00:00,5.355000,-0.007600,
2025-10-14T02:35:31.156559+00:00,5.360000,-0.017480,
2025-10-14T02:35:31.161559+00:00,5.365000,-0.078660,
2025-10-14T02:35:31.166559+00:00,5.370000,-0.006080,
2025-10-14T02:35:31.171559+00:00,5.375000,-0.004180,
2025-10-14T02:35:31.176559+00:00,5.380000,-0.118560,
2025-10-14T02:35:31.181559+00:00,5.385000,-0.079040,
2025-10-14T02:35:31.186559+00:00,5.390000,0.001520,
2025-10-14T02:35:31.191559+00:00,5.395000,-0.090060,
2025-10-14T02:35:31.196559+00:00,5.400000,-0.113620,
2025-10-14T02:35:31.201559+00:00,5.405000,0.006840,
2025-10-14T02:35:31.206559+00:00,5.410000,-0.011780,
2025-10-14T02:35:31.211559+00:00,5.415000,-0.090820,
2025-10-14T02:35:31.216559+00:00,5.420000,-0.017860,
2025-10-14T02:35:31.221559+00:00,5.425000,0.000000,
2025-10-14T02:35:31.226559+00:00,5.430000,-0.100700,
2025-10-14T02:35:31.231559+00:00,5.435000,-0.054720,
2025-10-14T02:35:31.236559+00:00,5.440000,0.023560,
2025-10-14T02:35:31.241559+00:00,5.445000,-0.083220,
2025-10-14T02:35:31.246559+00:00,5.450000,-0.117420,
2025-10-14T02:35:31.251559+00:00,5.455000,0.020900,
2025-10-14T02:35:31.256559+00:00,5.460000,0.026220,
2025-10-14T02:35:31.261559+00:00,5.465000,-0.069920,
2025-10-14T02:35:31.266559+00:00,5.470000,-0.028120,
2025-10-14T02:35:31.271559+00:00,5.475000,0.009500,
2025-10-14T02:35:31.276559+00:00,5.480000,-0.029640,
2025-10-14T02:35:31.281559+00:00,5.485000,0.018240,
2025-10-14T02:35:31.286559+00:00,5.490000,0.011400,
2025-10-14T02:35:31.291559+00:00,5.495000,-0.165300,
2025-10-14T02:35:31.296559+00:00,5.500000,-0.181260,
2025-10-14T02:35:31.301559+00:00,5.505000,0.000380,
2025-10-14T02:35:31.306559+00:00,5.510000,-0.000760,
2025-10-14T02:35:31.311559+00:00,5.515000,-0.107920,
2025-10-14T02:35:31.316559+00:00,5.520000,-0.028120,
2025-10-14T02:35:31.321559+00:00,5.525000,0.063840,
2025-10-14T02:35:31.326559+00:00,5.530000,0.030020,
2025-10-14T02:35:31.331559+00:00,5.535000,0.053580,
2025-10-14T02:35:31.336559+00:00,5.540000,0.047880,
2025-10-14T02:35:31.341559+00:00,5.545000,-0.118180,
2025-10-14T02:35:31.346559+00:00,5.550000,-0.162640,
2025-10-14T02:35:31.351559+00:00,5.555000,-0.024700,
2025-10-14T02:35:31.356559+00:00,5.560000,-0.028880,
2025-10-14T02:35:31.361559+00:00,5.565000,-0.108300,
2025-10-14T02:35:31.366559+00:00,5.570000,-0.031160,
2025-10-14T02:35:31.371559+00:00,5.575000,0.024700,
2025-10-14T02:35:31.376559+00:00,5.580000,-0.032300,
2025-10-14T02:35:31.381559+00:00,5.585000,0.003420,
2025-10-14T02:35:31.386559+00:00,5.590000,0.013680,
2025-10-14T02:35:31.391559+00:00,5.595000,-0.145540,
2025-10-14T02:35:31.396559+00:00,5.600000,-0.175560,
2025-10-14T02:35:31.401559+00:00,5.605000,-0.011400,
2025-10-14T02:35:31.406559+00:00,5.610000,0.004940,
2025-10-14T02:35:31.411559+00:00,5.615000,-0.074480,
2025-10-14T02:35:31.416559+00:00,5.620000,-0.005700,
2025-10-14T02:35:31.421559+00:00,5.625000,0.026980,
2025-10-14T02:35:31.426559+00:00,5.630000,-0.041800,
2025-10-14T02:35:31.431559+00:00,5.635000,0.026980,
2025-10-14T02:35:31.436559+00:00,5.640000,0.092340,
2025-10-14T02:35:31.441559+00:00,5.645000,-0.052820,
2025-10-14T02:35:31.446559+00:00,5.650000,-0.126160,
2025-10-14T02:35:31.451559+00:00,5.655000,-0.009880,
2025-10-14T02:35:31.456559+00:00,5.660000,-0.002660,
2025-10-14T02:35:31.461559+00:00,5.665000,-0.063840,
2025-10-14T02:35:31.466559+00:00,5.670000,0.006460,
2025-10-14T02:35:31.471559+00:00,5.675000,0.015960,
2025-10-14T02:35:31.476559+00:00,5.680000,-0.080940,
2025-10-14T02:35:31.481559+00:00,5.685000,-0.054340,
2025-10-14T02:35:31.486559+00:00,5.690000,-0.023180,
2025-10-14T02:35:31.491559+00:00,5.695000,-0.145920,
2025-10-14T02:35:31.496559+00:00,5.700000,-0.149340,
2025-10-14T02:35:31.501559+00:00,5.705000,-0.001140,
2025-10-14T02:35:31.506559+00:00,5.710000,-0.025840,
2025-10-14T02:35:31.511559+00:00,5.715000,-0.118560,
2025-10-14T02:35:31.516559+00:00,5.720000,-0.028500,
2025-10-14T02:35:31.521559+00:00,5.725000,0.042940,
2025-10-14T02:35:31.526559+00:00,5.730000,-0.004180,
2025-10-14T02:35:31.531559+00:00,5.735000,0.037240,
2025-10-14T02:35:31.536559+00:00,5.740000,0.048260,
2025-10-14T02:35:31.541559+00:00,5.745000,-0.116280,
2025-10-14T02:35:31.546559+00:00,5.750000,-0.161120,
2025-10-14T02:35:31.551559+00:00,5.755000,-0.014440,
2025-10-14T02:35:31.556559+00:00,5.760000,-0.011020,
2025-10-14T02:35:31.561559+00:00,5.765000,-0.091200,
2025-10-14T02:35:31.566559+00:00,5.770000,-0.022040,
2025-10-14T02:35:31.571559+00:00,5.775000,0.007600,
2025-10-14T02:35:31.576559+00:00,5.780000,-0.064600,
2025-10-14T02:35:31.581559+00:00,5.785000,-0.019000,
2025-10-14T02:35:31.586559+00:00,5.790000,0.020140,
2025-10-14T02:35:31.591559+00:00,5.795000,-0.106780,
2025-10-14T02:35:31.596559+00:00,5.800000,-0.128440,
2025-10-14T02:35:31.601559+00:00,5.805000,0.000760,
2025-10-14T02:35:31.606559+00:00,5.810000,-0.026980,
2025-10-14T02:35:31.611559+00:00,5.815000,-0.121220,
2025-10-14T02:35:31.616559+00:00,5.820000,-0.051680,
2025-10-14T02:35:31.621559+00:00,5.825000,-0.015960,
2025-10-14T02:35:31.626559+00:00,5.830000,-0.069540,
2025-10-14T02:35:31.631559+00:00,5.835000,-0.001140,
2025-10-14T02:35:31.636559+00:00,5.840000,0.053200,
2025-10-14T02:35:31.641559+00:00,5.845000,-0.077520,
2025-10-14T02:35:31.646559+00:00,5.850000,-0.123880,
2025-10-14T02:35:31.651559+00:00,5.855000,-0.017480,
2025-10-14T02:35:31.656559+00:00,5.860000,-0.039140,
2025-10-14T02:35:31.661559+00:00,5.865000,-0.101460,
2025-10-14T02:35:31.666559+00:00,5.870000,-0.019760,
2025-10-14T02:35:31.671559+00:00,5.875000,-0.031920,
2025-10-14T02:35:31.676559+00:00,5.880000,-0.155420,
2025-10-14T02:35:31.681559+00:00,5.885000,-0.098040,
2025-10-14T02:35:31.686559+00:00,5.890000,0.008740,
2025-10-14T02:35:31.691559+00:00,5.895000,-0.082460,
2025-10-14T02:35:31.696559+00:00,5.900000,-0.131860,
2025-10-14T02:35:31.701559+00:00,5.905000,-0.023560,
2025-10-14T02:35:31.706559+00:00,5.910000,-0.019760,
2025-10-14T02:35:31.711559+00:00,5.915000,-0.071060,
2025-10-14T02:35:31.716559+00:00,5.920000,-0.002280,
2025-10-14T02:35:31.721559+00:00,5.925000,-0.009500,
2025-10-14T02:35:31.726559+00:00,5.930000,-0.109820,
2025-10-14T02:35:31.731559+00:00,5.935000,-0.039900,
2025-10-14T02:35:31.736559+00:00,5.940000,0.056620,
2025-10-14T02:35:31.741559+00:00,5.945000,-0.041800,
2025-10-14T02:35:31.746559+00:00,5.950000,-0.093100,
2025-10-14T02:35:31.751559+00:00,5.955000,-0.007600,
2025-10-14T02:35:31.756559+00:00,5.960000,-0.049780,
2025-10-14T02:35:31.761559+00:00,5.965000,-0.111340,
2025-10-14T02:35:31.766559+00:00,5.970000,-0.006460,
2025-10-14T02:35:31.771559+00:00,5.975000,0.024320,
2025-10-14T02:35:31.776559+00:00,5.980000,-0.061560,
2025-10-14T02:35:31.781559+00:00,5.985000,-0.007980,
2025-10-14T02:35:31.786559+00:00,5.990000,0.047880,
2025-10-14T02:35:31.791559+00:00,5.995000,-0.089300,
2025-10-14T02:35:31.796559+00:00,6.000000,-0.144780,
2025-10-14T02:35:31.801559+00:00,6.005000,-0.024700,
2025-10-14T02:35:31.806559+00:00,6.010000,-0.015580,
2025-10-14T02:35:31.811559+00:00,6.015000,-0.060420,
2025-10-14T02:35:31.816559+00:00,6.020000,0.006080,
2025-10-14T02:35:31.821559+00:00,6.025000,-0.018620,
2025-10-14T02:35:31.826559+00:00,6.030000,-0.125400,
2025-10-14T02:35:31.831559+00:00,6.035000,-0.046740,
2025-10-14T02:35:31.836559+00:00,6.040000,0.051300,
2025-10-14T02:35:31.841559+00:00,6.045000,-0.059280,
2025-10-14T02:35:31.846559+00:00,6.050000,-0.118180,
2025-10-14T02:35:31.851559+00:00,6.055000,-0.011400,
2025-10-14T02:35:31.856559+00:00,6.060000,-0.007220,
2025-10-14T02:35:31.861559+00:00,6.065000,-0.052820,
2025-10-14T02:35:31.866559+00:00,6.070000,0.005320,
2025-10-14T02:35:31.871559+00:00,6.075000,-0.025460,
2025-10-14T02:35:31.876559+00:00,6.080000,-0.121220,
2025-10-14T02:35:31.881559+00:00,6.085000,-0.027740,
2025-10-14T02:35:31.886559+00:00,6.090000,0.058900,
2025-10-14T02:35:31.891559+00:00,6.095000,-0.086640,
2025-10-14T02:35:31.896559+00:00,6.100000,-0.153140,
2025-10-14T02:35:31.901559+00:00,6.105000,-0.013680,
2025-10-14T02:35:31.906559+00:00,6.110000,0.014820,
2025-10-14T02:35:31.911559+00:00,6.115000,-0.044460,
2025-10-14T02:35:31.916559+00:00,6.120000,0.003040,
2025-10-14T02:35:31.921559+00:00,6.125000,-0.003800,
2025-10-14T02:35:31.926559+00:00,6.130000,-0.073340,
2025-10-14T02:35:31.931559+00:00,6.135000,0.011400,
2025-10-14T02:35:31.936559+00:00,6.140000,0.066880,
2025-10-14T02:35:31.941559+00:00,6.145000,-0.099180,
2025-10-14T02:35:31.946559+00:00,6.150000,-0.172520,
2025-10-14T02:35:31.951559+00:00,6.155000,-0.032680,
2025-10-14T02:35:31.956559+00:00,6.160000,0.009120,
2025-10-14T02:35:31.961559+00:00,6.165000,-0.027360,
2025-10-14T02:35:31.966559+00:00,6.170000,0.031540,
2025-10-14T02:35:31.971559+00:00,6.175000,0.005320,
2025-10-14T02:35:31.976559+00:00,6.180000,-0.088540,
2025-10-14T02:35:31.981559+00:00,6.185000,-0.011020,
2025-10-14T02:35:31.986559+00:00,6.190000,0.052820,
2025-10-14T02:35:31.991559+00:00,6.195000,-0.094240,
2025-10-14T02:35:31.996559+00:00,6.200000,-0.156940,
2025-10-14T02:35:32.001559+00:00,6.205000,-0.039140,
2025-10-14T02:35:32.006559+00:00,6.210000,-0.033820,
2025-10-14T02:35:32.011559+00:00,6.215000,-0.081320,
2025-10-14T02:35:32.016559+00:00,6.220000,-0.010640,
2025-10-14T02:35:32.021559+00:00,6.225000,-0.024700,
2025-10-14T02:35:32.026559+00:00,6.230000,-0.114380,
2025-10-14T02:35:32.031559+00:00,6.235000,-0.026980,
2025-10-14T02:35:32.036559+00:00,6.240000,0.057000,
2025-10-14T02:35:32.041559+00:00,6.245000,-0.078660,
2025-10-14T02:35:32.046559+00:00,6.250000,-0.148200,
2025-10-14T02:35:32.051559+00:00,6.255000,-0.036860,
2025-10-14T02:35:32.056559+00:00,6.260000,-0.024700,
2025-10-14T02:35:32.061559+00:00,6.265000,-0.063460,
2025-10-14T02:35:32.066559+00:00,6.270000,0.002280,
2025-10-14T02:35:32.071559+00:00,6.275000,-0.028120,
2025-10-14T02:35:32.076559+00:00,6.280000,-0.129580,
2025-10-14T02:35:32.081559+00:00,6.285000,-0.025840,
2025-10-14T02:35:32.086559+00:00,6.290000,0.095000,
2025-10-14T02:35:32.091559+00:00,6.295000,-0.013300,
2025-10-14T02:35:32.096559+00:00,6.300000,-0.090060,
2025-10-14T02:35:32.101559+00:00,6.305000,-0.019380,
2025-10-14T02:35:32.106559+00:00,6.310000,-0.052440,
2025-10-14T02:35:32.111559+00:00,6.315000,-0.104880,
2025-10-14T02:35:32.116559+00:00,6.320000,-0.016720,
2025-10-14T02:35:32.121559+00:00,6.325000,-0.007220,
2025-10-14T02:35:32.126559+00:00,6.330000,-0.085500,
2025-10-14T02:35:32.131559+00:00,6.335000,-0.007600,
2025-10-14T02:35:32.136559+00:00,6.340000,0.038760,
2025-10-14T02:35:32.141559+00:00,6.345000,-0.122360,
2025-10-14T02:35:32.146559+00:00,6.350000,-0.166440,
2025-10-14T02:35:32.151559+00:00,6.355000,-0.001900,
2025-10-14T02:35:32.156559+00:00,6.360000,0.034960,
2025-10-14T02:35:32.161559+00:00,6.365000,-0.030400,
2025-10-14T02:35:32.166559+00:00,6.370000,0.001520,
2025-10-14T02:35:32.171559+00:00,6.375000,-0.021660,
2025-10-14T02:35:32.176559+00:00,6.380000,-0.098040,
2025-10-14T02:35:32.181559+00:00,6.385000,-0.016340,
2025-10-14T02:35:32.186559+00:00,6.390000,0.043320,
2025-10-14T02:35:32.191559+00:00,6.395000,-0.090820,
2025-10-14T02:35:32.196559+00:00,6.400000,-0.126920,
2025-10-14T02:35:32.201559+00:00,6.405000,-0.000760,
2025-10-14T02:35:32.206559+00:00,6.410000,-0.011020,
2025-10-14T02:35:32.211559+00:00,6.415000,-0.078660,
2025-10-14T02:35:32.216559+00:00,6.420000,-0.016340,
2025-10-14T02:35:32.221559+00:00,6.425000,-0.022040,
2025-10-14T02:35:32.226559+00:00,6.430000,-0.109440,
2025-10-14T02:35:32.231559+00:00,6.435000,-0.032300,
2025-10-14T02:35:32.236559+00:00,6.440000,0.047880,
2025-10-14T02:35:32.241559+00:00,6.445000,-0.066120,
2025-10-14T02:35:32.246559+00:00,6.450000,-0.100320,
2025-10-14T02:35:32.251559+00:00,6.455000,0.015200,
2025-10-14T02:35:32.256559+00:00,6.460000,-0.009880,
2025-10-14T02:35:32.261559+00:00,6.465000,-0.078660,
2025-10-14T02:35:32.266559+00:00,6.470000,-0.003800,
2025-10-14T02:35:32.271559+00:00,6.475000,-0.001900,
2025-10-14T02:35:32.276559+00:00,6.480000,-0.090820,
2025-10-14T02:35:32.281559+00:00,6.485000,-0.010640,
2025-10-14T02:35:32.286559+00:00,6.490000,0.069540,
2025-10-14T02:35:32.291559+00:00,6.495000,-0.060040,
2025-10-14T02:35:32.296559+00:00,6.500000,-0.122360,
2025-10-14T02:35:32.301559+00:00,6.505000,-0.028880,
2025-10-14T02:35:32.306559+00:00,6.510000,-0.047500,
2025-10-14T02:35:32.311559+00:00,6.515000,-0.092720,
2025-10-14T02:35:32.316559+00:00,6.520000,-0.003800,
2025-10-14T02:35:32.321559+00:00,6.525000,-0.010640,
2025-10-14T02:35:32.326559+00:00,6.530000,-0.103740,
2025-10-14T02:35:32.331559+00:00,6.535000,-0.018240,
2025-10-14T02:35:32.336559+00:00,6.540000,0.076380,
2025-10-14T02:35:32.341559+00:00,6.545000,-0.033060,
2025-10-14T02:35:32.346559+00:00,6.550000,-0.081700,
2025-10-14T02:35:32.351559+00:00,6.555000,0.010260,
2025-10-14T02:35:32.356559+00:00,6.560000,-0.021660,
2025-10-14T02:35:32.361559+00:00,6.565000,-0.078660,
2025-10-14T02:35:32.366559+00:00,6.570000,0.008740,
2025-10-14T02:35:32.371559+00:00,6.575000,0.008740,
2025-10-14T02:35:32.376559+00:00,6.580000,-0.078280,
2025-10-14T02:35:32.381559+00:00,6.585000,0.007980,
2025-10-14T02:35:32.386559+00:00,6.590000,0.097660,
2025-10-14T02:35:32.391559+00:00,6.595000,-0.025080,
2025-10-14T02:35:32.396559+00:00,6.600000,-0.102600,
2025-10-14T02:35:32.401559+00:00,6.605000,-0.050540,
2025-10-14T02:35:32.406559+00:00,6.610000,-0.096900,
2025-10-14T02:35:32.411559+00:00,6.615000,-0.127680,
2025-10-14T02:35:32.416559+00:00,6.620000,-0.003420,
2025-10-14T02:35:32.421559+00:00,6.625000,0.011780,
2025-10-14T02:35:32.426559+00:00,6.630000,-0.086640,
2025-10-14T02:35:32.431559+00:00,6.635000,-0.020900,
2025-10-14T02:35:32.436559+00:00,6.640000,0.066120,
2025-10-14T02:35:32.441559+00:00,6.645000,-0.034200,
2025-10-14T02:35:32.446559+00:00,6.650000,-0.075620,
2025-10-14T02:35:32.451559+00:00,6.655000,0.014060,
2025-10-14T02:35:32.456559+00:00,6.660000,-0.024320,
2025-10-14T02:35:32.461559+00:00,6.665000,-0.098420,
2025-10-14T02:35:32.466559+00:00,6.670000,-0.025840,
2025-10-14T02:35:32.471559+00:00,6.675000,-0.020900,
2025-10-14T02:35:32.476559+00:00,6.680000,-0.093480,
2025-10-14T02:35:32.481559+00:00,6.685000,-0.007980,
2025-10-14T02:35:32.486559+00:00,6.690000,0.064600,
2025-10-14T02:35:32.491559+00:00,6.695000,-0.061180,
2025-10-14T02:35:32.496559+00:00,6.700000,-0.099560,
2025-10-14T02:35:32.501559+00:00,6.705000,0.007220,
2025-10-14T02:35:32.506559+00:00,6.710000,-0.029640,
2025-10-14T02:35:32.511559+00:00,6.715000,-0.100320,
2025-10-14T02:35:32.516559+00:00,6.720000,-0.006840,
2025-10-14T02:35:32.521559+00:00,6.725000,0.015200,
2025-10-14T02:35:32.526559+00:00,6.730000,-0.061180,
2025-10-14T02:35:32.531559+00:00,6.735000,0.009500,
2025-10-14T02:35:32.536559+00:00,6.740000,0.064220,
2025-10-14T02:35:32.541559+00:00,6.745000,-0.082080,
2025-10-14T02:35:32.546559+00:00,6.750000,-0.132620,
2025-10-14T02:35:32.551559+00:00,6.755000,-0.012920,
2025-10-14T02:35:32.556559+00:00,6.760000,-0.014440,
2025-10-14T02:35:32.561559+00:00,6.765000,-0.056620,
2025-10-14T02:35:32.566559+00:00,6.770000,0.035720,
2025-10-14T02:35:32.571559+00:00,6.775000,0.034960,
2025-10-14T02:35:32.576559+00:00,6.780000,-0.064980,
2025-10-14T02:35:32.581559+00:00,6.785000,-0.013300,
2025-10-14T02:35:32.586559+00:00,6.790000,0.039140,
2025-10-14T02:35:32.591559+00:00,6.795000,-0.085120,
2025-10-14T02:35:32.596559+00:00,6.800000,-0.108680,
2025-10-14T02:35:32.601559+00:00,6.805000,0.006080,
2025-10-14T02:35:32.606559+00:00,6.810000,-0.025080,
2025-10-14T02:35:32.611559+00:00,6.815000,-0.082460,
2025-10-14T02:35:32.616559+00:00,6.820000,0.008740,
2025-10-14T02:35:32.621559+00:00,6.825000,-0.005700,
2025-10-14T02:35:32.626559+00:00,6.830000,-0.122740,
2025-10-14T02:35:32.631559+00:00,6.835000,-0.061940,
2025-10-14T02:35:32.636559+00:00,6.840000,0.019380,
2025-10-14T02:35:32.641559+00:00,6.845000,-0.083980,
2025-10-14T02:35:32.646559+00:00,6.850000,-0.109440,
2025-10-14T02:35:32.651559+00:00,6.855000,-0.002280,
2025-10-14T02:35:32.656559+00:00,6.860000,-0.025460,
2025-10-14T02:35:32.661559+00:00,6.865000,-0.079420,
2025-10-14T02:35:32.666559+00:00,6.870000,-0.009880,
2025-10-14T02:35:32.671559+00:00,6.875000,-0.035720,
2025-10-14T02:35:32.676559+00:00,6.880000,-0.132240,
2025-10-14T02:35:32.681559+00:00,6.885000,-0.050160,
2025-10-14T02:35:32.686559+00:00,6.890000,0.020900,
2025-10-14T02:35:32.691559+00:00,6.895000,-0.102220,
2025-10-14T02:35:32.696559+00:00,6.900000,-0.135280,
2025-10-14T02:35:32.701559+00:00,6.905000,-0.024320,
2025-10-14T02:35:32.706559+00:00,6.910000,-0.056620,
2025-10-14T02:35:32.711559+00:00,6.915000,-0.114380,
2025-10-14T02:35:32.716559+00:00,6.920000,-0.004940,
2025-10-14T02:35:32.721559+00:00,6.925000,0.037620,
2025-10-14T02:35:32.726559+00:00,6.930000,-0.033440,
2025-10-14T02:35:32.731559+00:00,6.935000,0.022040,
2025-10-14T02:35:32.736559+00:00,6.940000,0.059280,
2025-10-14T02:35:32.741559+00:00,6.945000,-0.093860,
2025-10-14T02:35:32.746559+00:00,6.950000,-0.144020,
2025-10-14T02:35:32.751559+00:00,6.955000,-0.012160,
2025-10-14T02:35:32.756559+00:00,6.960000,0.007600,
2025-10-14T02:35:32.761559+00:00,6.965000,-0.023180,
2025-10-14T02:35:32.766559+00:00,6.970000,0.036860,
2025-10-14T02:35:32.771559+00:00,6.975000,-0.019760,
2025-10-14T02:35:32.776559+00:00,6.980000,-0.143260,
2025-10-14T02:35:32.781559+00:00,6.985000,-0.056620,
2025-10-14T02:35:32.786559+00:00,6.990000,0.034200,
2025-10-14T02:35:32.791559+00:00,6.995000,-0.080180,
2025-10-14T02:35:32.796559+00:00,7.000000,-0.105640,
2025-10-14T02:35:32.801559+00:00,7.005000,0.011020,
2025-10-14T02:35:32.806559+00:00,7.010000,-0.016720,
2025-10-14T02:35:32.811559+00:00,7.015000,-0.080180,
2025-10-14T02:35:32.816559+00:00,7.020000,-0.012540,
2025-10-14T02:35:32.821559+00:00,7.025000,-0.032300,
2025-10-14T02:35:32.826559+00:00,7.030000,-0.117420,
2025-10-14T02:35:32.831559+00:00,7.035000,-0.029640,
2025-10-14T02:35:32.836559+00:00,7.040000,0.033440,
2025-10-14T02:35:32.841559+00:00,7.045000,-0.091200,
2025-10-14T02:35:32.846559+00:00,7.050000,-0.105260,
2025-10-14T02:35:32.851559+00:00,7.055000,0.014440,
2025-10-14T02:35:32.856559+00:00,7.060000,-0.023180,
2025-10-14T02:35:32.861559+00:00,7.065000,-0.098040,
2025-10-14T02:35:32.866559+00:00,7.070000,-0.019760,
2025-10-14T02:35:32.871559+00:00,7.075000,-0.006840,
2025-10-14T02:35:32.876559+00:00,7.080000,-0.080560,
2025-10-14T02:35:32.881559+00:00,7.085000,-0.013680,
2025-10-14T02:35:32.886559+00:00,7.090000,0.030400,
2025-10-14T02:35:32.891559+00:00,7.095000,-0.099560,
2025-10-14T02:35:32.896559+00:00,7.100000,-0.117800,
2025-10-14T02:35:32.901559+00:00,7.105000,0.004560,
2025-10-14T02:35:32.906559+00:00,7.110000,-0.016720,
2025-10-14T02:35:32.911559+00:00,7.115000,-0.071440,
2025-10-14T02:35:32.916559+00:00,7.120000,0.009880,
2025-10-14T02:35:32.921559+00:00,7.125000,0.004940,
2025-10-14T02:35:32.926559+00:00,7.130000,-0.081700,
2025-10-14T02:35:32.931559+00:00,7.135000,-0.008740,
2025-10-14T02:35:32.936559+00:00,7.140000,0.038760,
2025-10-14T02:35:32.941559+00:00,7.145000,-0.102980,
2025-10-14T02:35:32.946559+00:00,7.150000,-0.118180,
2025-10-14T02:35:32.951559+00:00,7.155000,0.032300,
2025-10-14T02:35:32.956559+00:00,7.160000,0.027740,
2025-10-14T02:35:32.961559+00:00,7.165000,-0.043320,
2025-10-14T02:35:32.966559+00:00,7.170000,0.012920,
2025-10-14T02:35:32.971559+00:00,7.175000,0.002280,
2025-10-14T02:35:32.976559+00:00,7.180000,-0.080180,
2025-10-14T02:35:32.981559+00:00,7.185000,-0.015960,
2025-10-14T02:35:32.986559+00:00,7.190000,0.027740,
2025-10-14T02:35:32.991559+00:00,7.195000,-0.096900,
2025-10-14T02:35:32.996559+00:00,7.200000,-0.104880,
2025-10-14T02:35:33.001559+00:00,7.205000,0.010260,
2025-10-14T02:35:33.006559+00:00,7.210000,-0.033060,
2025-10-14T02:35:33.011559+00:00,7.215000,-0.090060,
2025-10-14T02:35:33.016559+00:00,7.220000,0.008740,
2025-10-14T02:35:33.021559+00:00,7.225000,0.011020,
2025-10-14T02:35:33.026559+00:00,7.230000,-0.098420,
2025-10-14T02:35:33.031559+00:00,7.235000,-0.062320,
2025-10-14T02:35:33.036559+00:00,7.240000,-0.033060,
2025-10-14T02:35:33.041559+00:00,7.245000,-0.151240,
2025-10-14T02:35:33.046559+00:00,7.250000,-0.130340,
2025-10-14T02:35:33.051559+00:00,7.255000,0.026220,
2025-10-14T02:35:33.056559+00:00,7.260000,0.009880,
2025-10-14T02:35:33.061559+00:00,7.265000,-0.055860,
2025-10-14T02:35:33.066559+00:00,7.270000,0.005700,
2025-10-14T02:35:33.071559+00:00,7.275000,-0.015580,
2025-10-14T02:35:33.076559+00:00,7.280000,-0.112100,
2025-10-14T02:35:33.081559+00:00,7.285000,-0.043320,
2025-10-14T02:35:33.086559+00:00,7.290000,0.017860,
2025-10-14T02:35:33.091559+00:00,7.295000,-0.098040,
2025-10-14T02:35:33.096559+00:00,7.300000,-0.117040,
2025-10-14T02:35:33.101559+00:00,7.305000,-0.013680,
2025-10-14T02:35:33.106559+00:00,7.310000,-0.049400,
2025-10-14T02:35:33.111559+00:00,7.315000,-0.091200,
2025-10-14T02:35:33.116559+00:00,7.320000,0.013300,
2025-10-14T02:35:33.121559+00:00,7.325000,0.011780,
2025-10-14T02:35:33.126559+00:00,7.330000,-0.103360,
2025-10-14T02:35:33.131559+00:00,7.335000,-0.056620,
2025-10-14T02:35:33.136559+00:00,7.340000,0.014440,
2025-10-14T02:35:33.141559+00:00,7.345000,-0.059660,
2025-10-14T02:35:33.146559+00:00,7.350000,-0.048260,
2025-10-14T02:35:33.151559+00:00,7.355000,0.043320,
2025-10-14T02:35:33.156559+00:00,7.360000,-0.033440,
2025-10-14T02:35:33.161559+00:00,7.365000,-0.104500,
2025-10-14T02:35:33.166559+00:00,7.370000,-0.002280,
2025-10-14T02:35:33.171559+00:00,7.375000,0.007600,
2025-10-14T02:35:33.176559+00:00,7.380000,-0.101460,
2025-10-14T02:35:33.181559+00:00,7.385000,-0.059280,
2025-10-14T02:35:33.186559+00:00,7.390000,-0.003420,
2025-10-14T02:35:33.191559+00:00,7.395000,-0.096520,
2025-10-14T02:35:33.196559+00:00,7.400000,-0.079040,
2025-10-14T02:35:33.201559+00:00,7.405000,0.044460,
2025-10-14T02:35:33.206559+00:00,7.410000,-0.008740,
2025-10-14T02:35:33.211559+00:00,7.415000,-0.090440,
2025-10-14T02:35:33.216559+00:00,7.420000,-0.006840,
2025-10-14T02:35:33.221559+00:00,7.425000,0.004940,
2025-10-14T02:35:33.226559+00:00,7.430000,-0.086260,
2025-10-14T02:35:33.231559+00:00,7.435000,-0.044080,
2025-10-14T02:35:33.236559+00:00,7.440000,-0.018620,
2025-10-14T02:35:33.241559+00:00,7.445000,-0.133760,
2025-10-14T02:35:33.246559+00:00,7.450000,-0.107160,
2025-10-14T02:35:33.251559+00:00,7.455000,0.036860,
2025-10-14T02:35:33.256559+00:00,7.460000,-0.003420,
2025-10-14T02:35:33.261559+00:00,7.465000,-0.066500,
2025-10-14T02:35:33.266559+00:00,7.470000,0.030020,
2025-10-14T02:35:33.271559+00:00,7.475000,0.027740,
2025-10-14T02:35:33.276559+00:00,7.480000,-0.090440,
2025-10-14T02:35:33.281559+00:00,7.485000,-0.053200,
2025-10-14T02:35:33.286559+00:00,7.490000,0.003800,
2025-10-14T02:35:33.291559+00:00,7.495000,-0.081700,
2025-10-14T02:35:33.296559+00:00,7.500000,-0.070680,
2025-10-14T02:35:33.301559+00:00,7.505000,0.028120,
2025-10-14T02:35:33.306559+00:00,7.510000,-0.036100,
2025-10-14T02:35:33.311559+00:00,7.515000,-0.099940,
2025-10-14T02:35:33.316559+00:00,7.520000,-0.002660,
2025-10-14T02:35:33.321559+00:00,7.525000,0.000380,
2025-10-14T02:35:33.326559+00:00,7.530000,-0.090060,
2025-10-14T02:35:33.331559+00:00,7.535000,-0.011780,
2025-10-14T02:35:33.336559+00:00,7.540000,0.058900,
2025-10-14T02:35:33.341559+00:00,7.545000,-0.046360,
2025-10-14T02:35:33.346559+00:00,7.550000,-0.057760,
2025-10-14T02:35:33.351559+00:00,7.555000,0.027360,
2025-10-14T02:35:33.356559+00:00,7.560000,-0.059280,
2025-10-14T02:35:33.361559+00:00,7.565000,-0.152000,
2025-10-14T02:35:33.366559+00:00,7.570000,-0.068020,
2025-10-14T02:35:33.371559+00:00,7.575000,-0.063080,
2025-10-14T02:35:33.376559+00:00,7.580000,-0.145540,
2025-10-14T02:35:33.381559+00:00,7.585000,-0.057380,
2025-10-14T02:35:33.386559+00:00,7.590000,0.025080,
2025-10-14T02:35:33.391559+00:00,7.595000,-0.068780,
2025-10-14T02:35:33.396559+00:00,7.600000,-0.076000,
2025-10-14T02:35:33.401559+00:00,7.605000,0.015960,
2025-10-14T02:35:33.406559+00:00,7.610000,-0.045980,
2025-10-14T02:35:33.411559+00:00,7.615000,-0.114760,
2025-10-14T02:35:33.416559+00:00,7.620000,-0.031920,
2025-10-14T02:35:33.421559+00:00,7.625000,-0.035340,
2025-10-14T02:35:33.426559+00:00,7.630000,-0.117800,
2025-10-14T02:35:33.431559+00:00,7.635000,-0.038380,
2025-10-14T02:35:33.436559+00:00,7.640000,0.006840,
2025-10-14T02:35:33.441559+00:00,7.645000,-0.125400,
2025-10-14T02:35:33.446559+00:00,7.650000,-0.121980,
2025-10-14T02:35:33.451559+00:00,7.655000,0.022040,
2025-10-14T02:35:33.456559+00:00,7.660000,-0.000760,
2025-10-14T02:35:33.461559+00:00,7.665000,-0.078280,
2025-10-14T02:35:33.466559+00:00,7.670000,-0.026220,
2025-10-14T02:35:33.471559+00:00,7.675000,-0.050540,
2025-10-14T02:35:33.476559+00:00,7.680000,-0.129580,
2025-10-14T02:35:33.481559+00:00,7.685000,-0.032300,
2025-10-14T02:35:33.486559+00:00,7.690000,0.037620,
2025-10-14T02:35:33.491559+00:00,7.695000,-0.079420,
2025-10-14T02:35:33.496559+00:00,7.700000,-0.090440,
2025-10-14T02:35:33.501559+00:00,7.705000,0.024320,
2025-10-14T02:35:33.506559+00:00,7.710000,-0.009500,
2025-10-14T02:35:33.511559+00:00,7.715000,-0.079420,
2025-10-14T02:35:33.516559+00:00,7.720000,-0.024700,
2025-10-14T02:35:33.521559+00:00,7.725000,-0.048260,
2025-10-14T02:35:33.526559+00:00,7.730000,-0.132240,
2025-10-14T02:35:33.531559+00:00,7.735000,-0.067640,
2025-10-14T02:35:33.536559+00:00,7.740000,-0.050160,
2025-10-14T02:35:33.541559+00:00,7.745000,-0.188100,
2025-10-14T02:35:33.546559+00:00,7.750000,-0.144400,
2025-10-14T02:35:33.551559+00:00,7.755000,0.052440,
2025-10-14T02:35:33.556559+00:00,7.760000,0.050920,
2025-10-14T02:35:33.561559+00:00,7.765000,-0.019760,
2025-10-14T02:35:33.566559+00:00,7.770000,0.046360,
2025-10-14T02:35:33.571559+00:00,7.775000,0.022800,
2025-10-14T02:35:33.576559+00:00,7.780000,-0.092340,
2025-10-14T02:35:33.581559+00:00,7.785000,-0.036480,
2025-10-14T02:35:33.586559+00:00,7.790000,0.030020,
2025-10-14T02:35:33.591559+00:00,7.795000,-0.063840,
2025-10-14T02:35:33.596559+00:00,7.800000,-0.055100,
2025-10-14T02:35:33.601559+00:00,7.805000,0.051300,
2025-10-14T02:35:33.606559+00:00,7.810000,-0.004940,
2025-10-14T02:35:33.611559+00:00,7.815000,-0.076380,
2025-10-14T02:35:33.616559+00:00,7.820000,-0.007600,
2025-10-14T02:35:33.621559+00:00,7.825000,-0.030400,
2025-10-14T02:35:33.626559+00:00,7.830000,-0.124260,
2025-10-14T02:35:33.631559+00:00,7.835000,-0.054340,
2025-10-14T02:35:33.636559+00:00,7.840000,-0.018240,
2025-10-14T02:35:33.641559+00:00,7.845000,-0.146300,
2025-10-14T02:35:33.646559+00:00,7.850000,-0.112860,
2025-10-14T02:35:33.651559+00:00,7.855000,0.073340,
2025-10-14T02:35:33.656559+00:00,7.860000,0.073340,
2025-10-14T02:35:33.661559+00:00,7.865000,-0.010260,
2025-10-14T02:35:33.666559+00:00,7.870000,0.016340,
2025-10-14T02:35:33.671559+00:00,7.875000,-0.030400,
2025-10-14T02:35:33.676559+00:00,7.880000,-0.119700,
2025-10-14T02:35:33.681559+00:00,7.885000,-0.031920,
2025-10-14T02:35:33.686559+00:00,7.890000,0.021280,
2025-10-14T02:35:33.691559+00:00,7.895000,-0.101080,
2025-10-14T02:35:33.696559+00:00,7.900000,-0.087400,
2025-10-14T02:35:33.701559+00:00,7.905000,0.055860,
2025-10-14T02:35:33.706559+00:00,7.910000,0.021660,
2025-10-14T02:35:33.711559+00:00,7.915000,-0.044460,
2025-10-14T02:35:33.716559+00:00,7.920000,0.041040,
2025-10-14T02:35:33.721559+00:00,7.925000,0.039900,
2025-10-14T02:35:33.726559+00:00,7.930000,-0.060800,
2025-10-14T02:35:33.731559+00:00,7.935000,-0.023180,
2025-10-14T02:35:33.736559+00:00,7.940000,-0.002660,
2025-10-14T02:35:33.741559+00:00,7.945000,-0.108680,
2025-10-14T02:35:33.746559+00:00,7.950000,-0.068020,
2025-10-14T02:35:33.751559+00:00,7.955000,0.064600,
2025-10-14T02:35:33.756559+00:00,7.960000,-0.007600,
2025-10-14T02:35:33.761559+00:00,7.965000,-0.105260,
2025-10-14T02:35:33.766559+00:00,7.970000,-0.026980,
2025-10-14T02:35:33.771559+00:00,7.975000,-0.021280,
2025-10-14T02:35:33.776559+00:00,7.980000,-0.107160,
2025-10-14T02:35:33.781559+00:00,7.985000,-0.040660,
2025-10-14T02:35:33.786559+00:00,7.990000,0.019760,
2025-10-14T02:35:33.791559+00:00,7.995000,-0.069160,
2025-10-14T02:35:33.796559+00:00,8.000000,-0.044080,
2025-10-14T02:35:33.801559+00:00,8.005000,0.059280,
2025-10-14T02:35:33.806559+00:00,8.010000,-0.024700,
2025-10-14T02:35:33.811559+00:00,8.015000,-0.096140,
2025-10-14T02:35:33.816559+00:00,8.020000,0.015200,
2025-10-14T02:35:33.821559+00:00,8.025000,0.017480,
2025-10-14T02:35:33.826559+00:00,8.030000,-0.105640,
2025-10-14T02:35:33.831559+00:00,8.035000,-0.072580,
2025-10-14T02:35:33.836559+00:00,8.040000,-0.035720,
2025-10-14T02:35:33.841559+00:00,8.045000,-0.135660,
2025-10-14T02:35:33.846559+00:00,8.050000,-0.094620,
2025-10-14T02:35:33.851559+00:00,8.055000,0.061180,
2025-10-14T02:35:33.856559+00:00,8.060000,0.042180,
2025-10-14T02:35:33.861559+00:00,8.065000,-0.019380,
2025-10-14T02:35:33.866559+00:00,8.070000,0.020140,
2025-10-14T02:35:33.871559+00:00,8.075000,-0.060420,
2025-10-14T02:35:33.876559+00:00,8.080000,-0.194940,
2025-10-14T02:35:33.881559+00:00,8.085000,-0.106020,
2025-10-14T02:35:33.886559+00:00,8.090000,0.000000,
2025-10-14T02:35:33.891559+00:00,8.095000,-0.066120,
2025-10-14T02:35:33.896559+00:00,8.100000,-0.036860,
2025-10-14T02:35:33.901559+00:00,8.105000,0.079800,
2025-10-14T02:35:33.906559+00:00,8.110000,0.018620,
2025-10-14T02:35:33.911559+00:00,8.115000,-0.063460,
2025-10-14T02:35:33.916559+00:00,8.120000,0.003800,
2025-10-14T02:35:33.921559+00:00,8.125000,-0.011400,
2025-10-14T02:35:33.926559+00:00,8.130000,-0.099560,
2025-10-14T02:35:33.931559+00:00,8.135000,-0.041800,
2025-10-14T02:35:33.936559+00:00,8.140000,-0.026220,
2025-10-14T02:35:33.941559+00:00,8.145000,-0.156940,
2025-10-14T02:35:33.946559+00:00,8.150000,-0.114380,
2025-10-14T02:35:33.951559+00:00,8.155000,0.049400,
2025-10-14T02:35:33.956559+00:00,8.160000,-0.002280,
2025-10-14T02:35:33.961559+00:00,8.165000,-0.087400,
2025-10-14T02:35:33.966559+00:00,8.170000,0.012160,
2025-10-14T02:35:33.971559+00:00,8.175000,0.040280,
2025-10-14T02:35:33.976559+00:00,8.180000,-0.045600,
2025-10-14T02:35:33.981559+00:00,8.185000,-0.009120,
2025-10-14T02:35:33.986559+00:00,8.190000,0.006080,
2025-10-14T02:35:33.991559+00:00,8.195000,-0.099940,
2025-10-14T02:35:33.996559+00:00,8.200000,-0.043320,
2025-10-14T02:35:34.001559+00:00,8.205000,0.099940,
2025-10-14T02:35:34.006559+00:00,8.210000,0.016720,
2025-10-14T02:35:34.011559+00:00,8.215000,-0.092340,
2025-10-14T02:35:34.016559+00:00,8.220000,-0.019760,
2025-10-14T02:35:34.021559+00:00,8.225000,-0.020520,
2025-10-14T02:35:34.026559+00:00,8.230000,-0.101460,
2025-10-14T02:35:34.031559+00:00,8.235000,-0.026600,
2025-10-14T02:35:34.036559+00:00,8.240000,0.021280,
2025-10-14T02:35:34.041559+00:00,8.245000,-0.081320,
2025-10-14T02:35:34.046559+00:00,8.250000,-0.057760,
2025-10-14T02:35:34.051559+00:00,8.255000,0.049400,
2025-10-14T02:35:34.056559+00:00,8.260000,-0.030400,
2025-10-14T02:35:34.061559+00:00,8.265000,-0.104880,
2025-10-14T02:35:34.066559+00:00,8.270000,-0.003420,
2025-10-14T02:35:34.071559+00:00,8.275000,-0.007220,
2025-10-14T02:35:34.076559+00:00,8.280000,-0.108680,
2025-10-14T02:35:34.081559+00:00,8.285000,-0.043320,
2025-10-14T02:35:34.086559+00:00,8.290000,0.026220,
2025-10-14T02:35:34.091559+00:00,8.295000,-0.052440,
2025-10-14T02:35:34.096559+00:00,8.300000,-0.034200,
2025-10-14T02:35:34.101559+00:00,8.305000,0.046360,
2025-10-14T02:35:34.106559+00:00,8.310000,-0.052060,
2025-10-14T02:35:34.111559+00:00,8.315000,-0.128060,
2025-10-14T02:35:34.116559+00:00,8.320000,-0.016720,
2025-10-14T02:35:34.121559+00:00,8.325000,0.005320,
2025-10-14T02:35:34.126559+00:00,8.330000,-0.075240,
2025-10-14T02:35:34.131559+00:00,8.335000,-0.023940,
2025-10-14T02:35:34.136559+00:00,8.340000,0.003800,
2025-10-14T02:35:34.141559+00:00,8.345000,-0.098800,
2025-10-14T02:35:34.146559+00:00,8.350000,-0.061940,
2025-10-14T02:35:34.151559+00:00,8.355000,0.048640,
2025-10-14T02:35:34.156559+00:00,8.360000,-0.042940,
2025-10-14T02:35:34.161559+00:00,8.365000,-0.119320,
2025-10-14T02:35:34.166559+00:00,8.370000,0.009880,
2025-10-14T02:35:34.171559+00:00,8.375000,0.038760,
2025-10-14T02:35:34.176559+00:00,8.380000,-0.068020,
2025-10-14T02:35:34.181559+00:00,8.385000,-0.040660,
2025-10-14T02:35:34.186559+00:00,8.390000,-0.019760,
2025-10-14T02:35:34.191559+00:00,8.395000,-0.121220,
2025-10-14T02:35:34.196559+00:00,8.400000,-0.070680,
2025-10-14T02:35:34.201559+00:00,8.405000,0.069160,
2025-10-14T02:35:34.206559+00:00,8.410000,-0.001140,
2025-10-14T02:35:34.211559+00:00,8.415000,-0.088540,
2025-10-14T02:35:34.216559+00:00,8.420000,-0.018240,
2025-10-14T02:35:34.221559+00:00,8.425000,-0.047120,
2025-10-14T02:35:34.226559+00:00,8.430000,-0.152760,
2025-10-14T02:35:34.231559+00:00,8.435000,-0.066500,
2025-10-14T02:35:34.236559+00:00,8.440000,0.017860,
2025-10-14T02:35:34.241559+00:00,8.445000,-0.056240,
2025-10-14T02:35:34.246559+00:00,8.450000,-0.033060,
2025-10-14T02:35:34.251559+00:00,8.455000,0.053200,
2025-10-14T02:35:34.256559+00:00,8.460000,-0.039900,
2025-10-14T02:35:34.261559+00:00,8.465000,-0.114760,
2025-10-14T02:35:34.266559+00:00,8.470000,-0.021280,
2025-10-14T02:35:34.271559+00:00,8.475000,-0.030400,
2025-10-14T02:35:34.276559+00:00,8.480000,-0.132240,
2025-10-14T02:35:34.281559+00:00,8.485000,-0.056620,
2025-10-14T02:35:34.286559+00:00,8.490000,0.022800,
2025-10-14T02:35:34.291559+00:00,8.495000,-0.044840,
2025-10-14T02:35:34.296559+00:00,8.500000,-0.016720,
2025-10-14T02:35:34.301559+00:00,8.505000,0.053580,
2025-10-14T02:35:34.306559+00:00,8.510000,-0.069160,
2025-10-14T02:35:34.311559+00:00,8.515000,-0.150480,
2025-10-14T02:35:34.316559+00:00,8.520000,-0.030020,
2025-10-14T02:35:34.321559+00:00,8.525000,-0.019380,
2025-10-14T02:35:34.326559+00:00,8.530000,-0.121980,
2025-10-14T02:35:34.331559+00:00,8.535000,-0.060800,
2025-10-14T02:35:34.336559+00:00,8.540000,0.007220,
2025-10-14T02:35:34.341559+00:00,8.545000,-0.064220,
2025-10-14T02:35:34.346559+00:00,8.550000,-0.033060,
2025-10-14T02:35:34.351559+00:00,8.555000,0.054340,
2025-10-14T02:35:34.356559+00:00,8.560000,-0.050920,
2025-10-14T02:35:34.361559+00:00,8.565000,-0.140220,
2025-10-14T02:35:34.366559+00:00,8.570000,-0.049780,
2025-10-14T02:35:34.371559+00:00,8.575000,-0.055480,
2025-10-14T02:35:34.376559+00:00,8.580000,-0.140600,
2025-10-14T02:35:34.381559+00:00,8.585000,-0.033440,
2025-10-14T02:35:34.386559+00:00,8.590000,0.072200,
2025-10-14T02:35:34.391559+00:00,8.595000,-0.004180,
2025-10-14T02:35:34.396559+00:00,8.600000,-0.016720,
2025-10-14T02:35:34.401559+00:00,8.605000,0.025080,
2025-10-14T02:35:34.406559+00:00,8.610000,-0.089680,
2025-10-14T02:35:34.411559+00:00,8.615000,-0.144400,
2025-10-14T02:35:34.416559+00:00,8.620000,-0.011400,
2025-10-14T02:35:34.421559+00:00,8.625000,-0.006840,
2025-10-14T02:35:34.426559+00:00,8.630000,-0.114760,
2025-10-14T02:35:34.431559+00:00,8.635000,-0.049400,
2025-10-14T02:35:34.436559+00:00,8.640000,0.030780,
2025-10-14T02:35:34.441559+00:00,8.645000,-0.043700,
2025-10-14T02:35:34.446559+00:00,8.650000,-0.041800,
2025-10-14T02:35:34.451559+00:00,8.655000,0.006080,
2025-10-14T02:35:34.456559+00:00,8.660000,-0.098040,
2025-10-14T02:35:34.461559+00:00,8.665000,-0.126540,
2025-10-14T02:35:34.466559+00:00,8.670000,0.007980,
2025-10-14T02:35:34.471559+00:00,8.675000,-0.033440,
2025-10-14T02:35:34.476559+00:00,8.680000,-0.182780,
2025-10-14T02:35:34.481559+00:00,8.685000,-0.095760,
2025-10-14T02:35:34.486559+00:00,8.690000,0.038000,
2025-10-14T02:35:34.491559+00:00,8.695000,-0.013300,
2025-10-14T02:35:34.496559+00:00,8.700000,-0.019380,
2025-10-14T02:35:34.501559+00:00,8.705000,0.022800,
2025-10-14T02:35:34.506559+00:00,8.710000,-0.085120,
2025-10-14T02:35:34.511559+00:00,8.715000,-0.127680,
2025-10-14T02:35:34.516559+00:00,8.720000,0.010640,
2025-10-14T02:35:34.521559+00:00,8.725000,0.014820,
2025-10-14T02:35:34.526559+00:00,8.730000,-0.089680,
2025-10-14T02:35:34.531559+00:00,8.735000,-0.019760,
2025-10-14T02:35:34.536559+00:00,8.740000,0.047880,
2025-10-14T02:35:34.541559+00:00,8.745000,-0.031920,
2025-10-14T02:35:34.546559+00:00,8.750000,-0.014440,
2025-10-14T02:35:34.551559+00:00,8.755000,0.045220,
2025-10-14T02:35:34.556559+00:00,8.760000,-0.084360,
2025-10-14T02:35:34.561559+00:00,8.765000,-0.158840,
2025-10-14T02:35:34.566559+00:00,8.770000,-0.025080,
2025-10-14T02:35:34.571559+00:00,8.775000,-0.004560,
2025-10-14T02:35:34.576559+00:00,8.780000,-0.095760,
2025-10-14T02:35:34.581559+00:00,8.785000,-0.028120,
2025-10-14T02:35:34.586559+00:00,8.790000,0.041040,
2025-10-14T02:35:34.591559+00:00,8.795000,-0.033440,
2025-10-14T02:35:34.596559+00:00,8.800000,-0.015960,
2025-10-14T02:35:34.601559+00:00,8.805000,0.041040,
2025-10-14T02:35:34.606559+00:00,8.810000,-0.078660,
2025-10-14T02:35:34.611559+00:00,8.815000,-0.142500,
2025-10-14T02:35:34.616559+00:00,8.820000,-0.021280,
2025-10-14T02:35:34.621559+00:00,8.825000,-0.030780,
2025-10-14T02:35:34.626559+00:00,8.830000,-0.137940,
2025-10-14T02:35:34.631559+00:00,8.835000,-0.054720,
2025-10-14T02:35:34.636559+00:00,8.840000,0.046360,
2025-10-14T02:35:34.641559+00:00,8.845000,-0.011780,
2025-10-14T02:35:34.646559+00:00,8.850000,-0.010640,
2025-10-14T02:35:34.651559+00:00,8.855000,0.015580,
2025-10-14T02:35:34.656559+00:00,8.860000,-0.104500,
2025-10-14T02:35:34.661559+00:00,8.865000,-0.134900,
2025-10-14T02:35:34.666559+00:00,8.870000,0.003420,
2025-10-14T02:35:34.671559+00:00,8.875000,-0.027360,
2025-10-14T02:35:34.676559+00:00,8.880000,-0.156180,
2025-10-14T02:35:34.681559+00:00,8.885000,-0.066500,
2025-10-14T02:35:34.686559+00:00,8.890000,0.034960,
2025-10-14T02:35:34.691559+00:00,8.895000,-0.044840,
2025-10-14T02:35:34.696559+00:00,8.900000,-0.051680,
2025-10-14T02:35:34.701559+00:00,8.905000,0.007600,
2025-10-14T02:35:34.706559+00:00,8.910000,-0.082080,
2025-10-14T02:35:34.711559+00:00,8.915000,-0.119320,
2025-10-14T02:35:34.716559+00:00,8.920000,-0.011020,
2025-10-14T02:35:34.721559+00:00,8.925000,-0.049400,
2025-10-14T02:35:34.726559+00:00,8.930000,-0.166440,
2025-10-14T02:35:34.731559+00:00,8.935000,-0.073340,
2025-10-14T02:35:34.736559+00:00,8.940000,0.028120,
2025-10-14T02:35:34.741559+00:00,8.945000,-0.038760,
2025-10-14T02:35:34.746559+00:00,8.950000,-0.026600,
2025-10-14T02:35:34.751559+00:00,8.955000,0.024320,
2025-10-14T02:35:34.756559+00:00,8.960000,-0.109060,
2025-10-14T02:35:34.761559+00:00,8.965000,-0.187340,
2025-10-14T02:35:34.766559+00:00,8.970000,-0.044840,
2025-10-14T02:35:34.771559+00:00,8.975000,0.006080,
2025-10-14T02:35:34.776559+00:00,8.980000,-0.047500,
2025-10-14T02:35:34.781559+00:00,8.985000,0.026220,
2025-10-14T02:35:34.786559+00:00,8.990000,0.060800,COUNT_START|trial=1
2025-10-14T02:35:34.791559+00:00,8.995000,-0.045600,
2025-10-14T02:35:34.796559+00:00,9.000000,-0.027740,
2025-10-14T02:35:34.801559+00:00,9.005000,0.036860,
2025-10-14T02:35:34.806559+00:00,9.010000,-0.093100,
2025-10-14T02:35:34.811559+00:00,9.015000,-0.163400,
2025-10-14T02:35:34.816559+00:00,9.020000,-0.026980,
2025-10-14T02:35:34.821559+00:00,9.025000,-0.008360,
2025-10-14T02:35:34.826559+00:00,9.030000,-0.098040,
2025-10-14T02:35:34.831559+00:00,9.035000,-0.034200,
2025-10-14T02:35:34.836559+00:00,9.040000,0.020520,
2025-10-14T02:35:34.841559+00:00,9.045000,-0.066500,
2025-10-14T02:35:34.846559+00:00,9.050000,-0.061180,
2025-10-14T02:35:34.851559+00:00,9.055000,-0.015200,
2025-10-14T02:35:34.856559+00:00,9.060000,-0.125780,
2025-10-14T02:35:34.861559+00:00,9.065000,-0.145920,
2025-10-14T02:35:34.866559+00:00,9.070000,0.011780,
2025-10-14T02:35:34.871559+00:00,9.075000,0.005700,
2025-10-14T02:35:34.876559+00:00,9.080000,-0.114380,
2025-10-14T02:35:34.881559+00:00,9.085000,-0.046740,
2025-10-14T02:35:34.886559+00:00,9.090000,0.028500,
2025-10-14T02:35:34.891559+00:00,9.095000,-0.057760,
2025-10-14T02:35:34.896559+00:00,9.100000,-0.056620,
2025-10-14T02:35:34.901559+00:00,9.105000,0.006840,
2025-10-14T02:35:34.906559+00:00,9.110000,-0.077900,
2025-10-14T02:35:34.911559+00:00,9.115000,-0.111340,
2025-10-14T02:35:34.916559+00:00,9.120000,0.000380,
2025-10-14T02:35:34.921559+00:00,9.125000,-0.025840,
2025-10-14T02:35:34.926559+00:00,9.130000,-0.117800,
2025-10-14T02:35:34.931559+00:00,9.135000,-0.020520,
2025-10-14T02:35:34.936559+00:00,9.140000,0.045980,
2025-10-14T02:35:34.941559+00:00,9.145000,-0.058140,
2025-10-14T02:35:34.946559+00:00,9.150000,-0.066500,
2025-10-14T02:35:34.951559+00:00,9.155000,-0.019380,
2025-10-14T02:35:34.956559+00:00,9.160000,-0.131860,
2025-10-14T02:35:34.961559+00:00,9.165000,-0.166820,
2025-10-14T02:35:34.966559+00:00,9.170000,-0.000380,
2025-10-14T02:35:34.971559+00:00,9.175000,0.026220,
2025-10-14T02:35:34.976559+00:00,9.180000,-0.081320,
2025-10-14T02:35:34.981559+00:00,9.185000,-0.025460,
2025-10-14T02:35:34.986559+00:00,9.190000,0.052440,
2025-10-14T02:35:34.991559+00:00,9.195000,-0.001520,
2025-10-14T02:35:34.996559+00:00,9.200000,0.019380,
2025-10-14T02:35:35.001559+00:00,9.205000,0.064220,
2025-10-14T02:35:35.006559+00:00,9.210000,-0.052060,
2025-10-14T02:35:35.011559+00:00,9.215000,-0.097280,
2025-10-14T02:35:35.016559+00:00,9.220000,0.020520,
2025-10-14T02:35:35.021559+00:00,9.225000,-0.014440,
2025-10-14T02:35:35.026559+00:00,9.230000,-0.132620,
2025-10-14T02:35:35.031559+00:00,9.235000,-0.041040,
2025-10-14T02:35:35.036559+00:00,9.240000,0.045220,
2025-10-14T02:35:35.041559+00:00,9.245000,-0.039900,
2025-10-14T02:35:35.046559+00:00,9.250000,-0.033060,
2025-10-14T02:35:35.051559+00:00,9.255000,0.031540,
2025-10-14T02:35:35.056559+00:00,9.260000,-0.065360,
2025-10-14T02:35:35.061559+00:00,9.265000,-0.104500,
2025-10-14T02:35:35.066559+00:00,9.270000,0.015200,
2025-10-14T02:35:35.071559+00:00,9.275000,-0.012920,
2025-10-14T02:35:35.076559+00:00,9.280000,-0.123500,
2025-10-14T02:35:35.081559+00:00,9.285000,-0.039140,
2025-10-14T02:35:35.086559+00:00,9.290000,0.025460,
2025-10-14T02:35:35.091559+00:00,9.295000,-0.084740,
2025-10-14T02:35:35.096559+00:00,9.300000,-0.092720,
2025-10-14T02:35:35.101559+00:00,9.305000,-0.032300,
2025-10-14T02:35:35.106559+00:00,9.310000,-0.122360,
2025-10-14T02:35:35.111559+00:00,9.315000,-0.145160,
2025-10-14T02:35:35.116559+00:00,9.320000,0.001140,
2025-10-14T02:35:35.121559+00:00,9.325000,0.002660,
2025-10-14T02:35:35.126559+00:00,9.330000,-0.089680,
2025-10-14T02:35:35.131559+00:00,9.335000,-0.009880,
2025-10-14T02:35:35.136559+00:00,9.340000,0.056240,
2025-10-14T02:35:35.141559+00:00,9.345000,-0.024700,
2025-10-14T02:35:35.146559+00:00,9.350000,-0.011020,
2025-10-14T02:35:35.151559+00:00,9.355000,0.022420,
2025-10-14T02:35:35.156559+00:00,9.360000,-0.129960,
2025-10-14T02:35:35.161559+00:00,9.365000,-0.196840,
2025-10-14T02:35:35.166559+00:00,9.370000,-0.040660,
2025-10-14T02:35:35.171559+00:00,9.375000,-0.002280,
2025-10-14T02:35:35.176559+00:00,9.380000,-0.074860,
2025-10-14T02:35:35.181559+00:00,9.385000,-0.002280,
2025-10-14T02:35:35.186559+00:00,9.390000,0.038760,
2025-10-14T02:35:35.191559+00:00,9.395000,-0.069540,
2025-10-14T02:35:35.196559+00:00,9.400000,-0.063460,
2025-10-14T02:35:35.201559+00:00,9.405000,0.000000,
2025-10-14T02:35:35.206559+00:00,9.410000,-0.100700,
2025-10-14T02:35:35.211559+00:00,9.415000,-0.133000,
2025-10-14T02:35:35.216559+00:00,9.420000,-0.001520,
2025-10-14T02:35:35.221559+00:00,9.425000,-0.016720,
2025-10-14T02:35:35.226559+00:00,9.430000,-0.107920,
2025-10-14T02:35:35.231559+00:00,9.435000,-0.004940,
2025-10-14T02:35:35.236559+00:00,9.440000,0.067260,
2025-10-14T02:35:35.241559+00:00,9.445000,-0.042560,
2025-10-14T02:35:35.246559+00:00,9.450000,-0.062700,
2025-10-14T02:35:35.251559+00:00,9.455000,-0.022800,
2025-10-14T02:35:35.256559+00:00,9.460000,-0.124260,
2025-10-14T02:35:35.261559+00:00,9.465000,-0.131480,
2025-10-14T02:35:35.266559+00:00,9.470000,0.037240,
2025-10-14T02:35:35.271559+00:00,9.475000,0.049780,
2025-10-14T02:35:35.276559+00:00,9.480000,-0.053580,
2025-10-14T02:35:35.281559+00:00,9.485000,-0.012540,
2025-10-14T02:35:35.286559+00:00,9.490000,-0.001900,
2025-10-14T02:35:35.291559+00:00,9.495000,-0.113240,
2025-10-14T02:35:35.296559+00:00,9.500000,-0.086640,
2025-10-14T02:35:35.301559+00:00,9.505000,-0.003800,
2025-10-14T02:35:35.306559+00:00,9.510000,-0.088160,
2025-10-14T02:35:35.311559+00:00,9.515000,-0.102220,
2025-10-14T02:35:35.316559+00:00,9.520000,0.033060,
2025-10-14T02:35:35.321559+00:00,9.525000,0.000380,
2025-10-14T02:35:35.326559+00:00,9.530000,-0.118560,
2025-10-14T02:35:35.331559+00:00,9.535000,-0.042940,
2025-10-14T02:35:35.336559+00:00,9.540000,0.020140,
2025-10-14T02:35:35.341559+00:00,9.545000,-0.064600,
2025-10-14T02:35:35.346559+00:00,9.550000,-0.044460,
2025-10-14T02:35:35.351559+00:00,9.555000,0.012160,
2025-10-14T02:35:35.356559+00:00,9.560000,-0.111340,
2025-10-14T02:35:35.361559+00:00,9.565000,-0.155800,
2025-10-14T02:35:35.366559+00:00,9.570000,-0.007980,
2025-10-14T02:35:35.371559+00:00,9.575000,0.002660,
2025-10-14T02:35:35.376559+00:00,9.580000,-0.094620,
2025-10-14T02:35:35.381559+00:00,9.585000,-0.034580,
2025-10-14T02:35:35.386559+00:00,9.590000,0.007600,
2025-10-14T02:35:35.391559+00:00,9.595000,-0.067260,
2025-10-14T02:35:35.396559+00:00,9.600000,-0.025460,
2025-10-14T02:35:35.401559+00:00,9.605000,0.043700,
2025-10-14T02:35:35.406559+00:00,9.610000,-0.069920,
2025-10-14T02:35:35.411559+00:00,9.615000,-0.106780,
2025-10-14T02:35:35.416559+00:00,9.620000,0.026980,
2025-10-14T02:35:35.421559+00:00,9.625000,0.009880,
2025-10-14T02:35:35.426559+00:00,9.630000,-0.099180,
2025-10-14T02:35:35.431559+00:00,9.635000,-0.022040,
2025-10-14T02:35:35.436559+00:00,9.640000,0.030400,
2025-10-14T02:35:35.441559+00:00,9.645000,-0.071440,
2025-10-14T02:35:35.446559+00:00,9.650000,-0.061560,
2025-10-14T02:35:35.451559+00:00,9.655000,0.002660,
2025-10-14T02:35:35.456559+00:00,9.660000,-0.082080,
2025-10-14T02:35:35.461559+00:00,9.665000,-0.089300,
2025-10-14T02:35:35.466559+00:00,9.670000,0.057000,
2025-10-14T02:35:35.471559+00:00,9.675000,0.040280,
2025-10-14T02:35:35.476559+00:00,9.680000,-0.080940,
2025-10-14T02:35:35.481559+00:00,9.685000,-0.034200,
2025-10-14T02:35:35.486559+00:00,9.690000,-0.002660,
2025-10-14T02:35:35.491559+00:00,9.695000,-0.089680,
2025-10-14T02:35:35.496559+00:00,9.700000,-0.043700,
2025-10-14T02:35:35.501559+00:00,9.705000,0.038000,
2025-10-14T02:35:35.506559+00:00,9.710000,-0.072200,
2025-10-14T02:35:35.511559+00:00,9.715000,-0.117040,
2025-10-14T02:35:35.516559+00:00,9.720000,0.020520,
2025-10-14T02:35:35.521559+00:00,9.725000,0.029640,
2025-10-14T02:35:35.526559+00:00,9.730000,-0.057760,
2025-10-14T02:35:35.531559+00:00,9.735000,0.001520,
2025-10-14T02:35:35.536559+00:00,9.740000,0.015200,
2025-10-14T02:35:35.541559+00:00,9.745000,-0.099560,
2025-10-14T02:35:35.546559+00:00,9.750000,-0.071060,
2025-10-14T02:35:35.551559+00:00,9.755000,0.012540,
2025-10-14T02:35:35.556559+00:00,9.760000,-0.077520,
2025-10-14T02:35:35.561559+00:00,9.765000,-0.109440,
2025-10-14T02:35:35.566559+00:00,9.770000,0.004180,
2025-10-14T02:35:35.571559+00:00,9.775000,-0.038000,
2025-10-14T02:35:35.576559+00:00,9.780000,-0.142500,
2025-10-14T02:35:35.581559+00:00,9.785000,-0.047500,
2025-10-14T02:35:35.586559+00:00,9.790000,0.019380,
2025-10-14T02:35:35.591559+00:00,9.795000,-0.074100,
2025-10-14T02:35:35.596559+00:00,9.800000,-0.053580,
2025-10-14T02:35:35.601559+00:00,9.805000,0.026980,
2025-10-14T02:35:35.606559+00:00,9.810000,-0.054720,
2025-10-14T02:35:35.611559+00:00,9.815000,-0.080560,
2025-10-14T02:35:35.616559+00:00,9.820000,0.039900,
2025-10-14T02:35:35.621559+00:00,9.825000,0.012160,
2025-10-14T02:35:35.626559+00:00,9.830000,-0.090440,
2025-10-14T02:35:35.631559+00:00,9.835000,-0.023180,
2025-10-14T02:35:35.636559+00:00,9.840000,0.012540,
2025-10-14T02:35:35.641559+00:00,9.845000,-0.082080,
2025-10-14T02:35:35.646559+00:00,9.850000,-0.042560,
2025-10-14T02:35:35.651559+00:00,9.855000,0.040280,
2025-10-14T02:35:35.656559+00:00,9.860000,-0.058900,
2025-10-14T02:35:35.661559+00:00,9.865000,-0.090440,
2025-10-14T02:35:35.666559+00:00,9.870000,0.045600,
2025-10-14T02:35:35.671559+00:00,9.875000,0.034960,
2025-10-14T02:35:35.676559+00:00,9.880000,-0.074860,
2025-10-14T02:35:35.681559+00:00,9.885000,-0.028500,
2025-10-14T02:35:35.686559+00:00,9.890000,0.002280,
2025-10-14T02:35:35.691559+00:00,9.895000,-0.079800,
2025-10-14T02:35:35.696559+00:00,9.900000,-0.029260,
2025-10-14T02:35:35.701559+00:00,9.905000,0.049780,
2025-10-14T02:35:35.706559+00:00,9.910000,-0.061940,
2025-10-14T02:35:35.711559+00:00,9.915000,-0.100700,
2025-10-14T02:35:35.716559+00:00,9.920000,0.036860,
2025-10-14T02:35:35.721559+00:00,9.925000,0.028500,
2025-10-14T02:35:35.726559+00:00,9.930000,-0.073720,
2025-10-14T02:35:35.731559+00:00,9.935000,-0.011020,
2025-10-14T02:35:35.736559+00:00,9.940000,0.019000,
2025-10-14T02:35:35.741559+00:00,9.945000,-0.087780,
2025-10-14T02:35:35.746559+00:00,9.950000,-0.058900,
2025-10-14T02:35:35.751559+00:00,9.955000,0.017860,
2025-10-14T02:35:35.756559+00:00,9.960000,-0.093480,
2025-10-14T02:35:35.761559+00:00,9.965000,-0.143260,
2025-10-14T02:35:35.766559+00:00,9.970000,-0.010640,
2025-10-14T02:35:35.771559+00:00,9.975000,0.006080,
2025-10-14T02:35:35.776559+00:00,9.980000,-0.054340,
2025-10-14T02:35:35.781559+00:00,9.985000,0.017480,
2025-10-14T02:35:35.786559+00:00,9.990000,0.020520,COUNT_END|trial=1
2025-10-14T02:35:35.791559+00:00,9.995000,-0.104880,
2025-10-14T02:35:35.796559+00:00,10.000000,-0.078280,
2025-10-14T02:35:35.801559+00:00,10.005000,0.003040,
2025-10-14T02:35:35.806559+00:00,10.010000,-0.091960,
2025-10-14T02:35:35.811559+00:00,10.015000,-0.115900,
2025-10-14T02:35:35.816559+00:00,10.020000,0.020520,
2025-10-14T02:35:35.821559+00:00,10.025000,-0.001140,
2025-10-14T02:35:35.826559+00:00,10.030000,-0.104500,
2025-10-14T02:35:35.831559+00:00,10.035000,-0.030020,
2025-10-14T02:35:35.836559+00:00,10.040000,0.014820,
2025-10-14T02:35:35.841559+00:00,10.045000,-0.085500,
2025-10-14T02:35:35.846559+00:00,10.050000,-0.060800,
2025-10-14T02:35:35.851559+00:00,10.055000,0.011780,
2025-10-14T02:35:35.856559+00:00,10.060000,-0.074860,
2025-10-14T02:35:35.861559+00:00,10.065000,-0.093860,
2025-10-14T02:35:35.866559+00:00,10.070000,0.032680,
2025-10-14T02:35:35.871559+00:00,10.075000,0.014060,
2025-10-14T02:35:35.876559+00:00,10.080000,-0.075240,
2025-10-14T02:35:35.881559+00:00,10.085000,0.006460,
2025-10-14T02:35:35.886559+00:00,10.090000,0.042180,
2025-10-14T02:35:35.891559+00:00,10.095000,-0.071060,
2025-10-14T02:35:35.896559+00:00,10.100000,-0.049020,
2025-10-14T02:35:35.901559+00:00,10.105000,0.037620,
2025-10-14T02:35:35.906559+00:00,10.110000,-0.044840,
2025-10-14T02:35:35.911559+00:00,10.115000,-0.076380,
2025-10-14T02:35:35.916559+00:00,10.120000,0.032300,
2025-10-14T02:35:35.921559+00:00,10.125000,-0.009120,
2025-10-14T02:35:35.926559+00:00,10.130000,-0.115140,
2025-10-14T02:35:35.931559+00:00,10.135000,-0.028500,
2025-10-14T02:35:35.936559+00:00,10.140000,0.031920,
2025-10-14T02:35:35.941559+00:00,10.145000,-0.055860,
2025-10-14T02:35:35.946559+00:00,10.150000,-0.033440,
2025-10-14T02:35:35.951559+00:00,10.155000,0.024320,
2025-10-14T02:35:35.956559+00:00,10.160000,-0.088540,
2025-10-14T02:35:35.961559+00:00,10.165000,-0.120080,
2025-10-14T02:35:35.966559+00:00,10.170000,0.012160,
2025-10-14T02:35:35.971559+00:00,10.175000,-0.006840,
2025-10-14T02:35:35.976559+00:00,10.180000,-0.102220,
2025-10-14T02:35:35.981559+00:00,10.185000,-0.025840,
2025-10-14T02:35:35.986559+00:00,10.190000,0.005320,
2025-10-14T02:35:35.991559+00:00,10.195000,-0.104880,
2025-10-14T02:35:35.996559+00:00,10.200000,-0.079040,
2025-10-14T02:35:36.001559+00:00,10.205000,-0.010640,
2025-10-14T02:35:36.006559+00:00,10.210000,-0.118560,
2025-10-14T02:35:36.011559+00:00,10.215000,-0.144780,
2025-10-14T02:35:36.016559+00:00,10.220000,0.003040,
2025-10-14T02:35:36.021559+00:00,10.225000,0.005700,
2025-10-14T02:35:36.026559+00:00,10.230000,-0.081700,
2025-10-14T02:35:36.031559+00:00,10.235000,-0.024700,
2025-10-14T02:35:36.036559+00:00,10.240000,-0.012920,
2025-10-14T02:35:36.041559+00:00,10.245000,-0.112100,
2025-10-14T02:35:36.046559+00:00,10.250000,-0.055100,
2025-10-14T02:35:36.051559+00:00,10.255000,0.036860,
2025-10-14T02:35:36.056559+00:00,10.260000,-0.070680,
2025-10-14T02:35:36.061559+00:00,10.265000,-0.119320,
2025-10-14T02:35:36.066559+00:00,10.270000,0.000000,
2025-10-14T02:35:36.071559+00:00,10.275000,-0.007980,
2025-10-14T02:35:36.076559+00:00,10.280000,-0.090820,
2025-10-14T02:35:36.081559+00:00,10.285000,-0.022420,
2025-10-14T02:35:36.086559+00:00,10.290000,-0.006080,
2025-10-14T02:35:36.091559+00:00,10.295000,-0.109820,
2025-10-14T02:35:36.096559+00:00,10.300000,-0.065360,
2025-10-14T02:35:36.101559+00:00,10.305000,0.020140,
2025-10-14T02:35:36.106559+00:00,10.310000,-0.066500,
2025-10-14T02:35:36.111559+00:00,10.315000,-0.077520,
2025-10-14T02:35:36.116559+00:00,10.320000,0.057380,
2025-10-14T02:35:36.121559+00:00,10.325000,0.021280,
2025-10-14T02:35:36.126559+00:00,10.330000,-0.096140,
2025-10-14T02:35:36.131559+00:00,10.335000,-0.030020,
2025-10-14T02:35:36.136559+00:00,10.340000,0.012920,
2025-10-14T02:35:36.141559+00:00,10.345000,-0.080560,
2025-10-14T02:35:36.146559+00:00,10.350000,-0.065360,
2025-10-14T02:35:36.151559+00:00,10.355000,-0.008360,
2025-10-14T02:35:36.156559+00:00,10.360000,-0.087400,
2025-10-14T02:35:36.161559+00:00,10.365000,-0.082840,
2025-10-14T02:35:36.166559+00:00,10.370000,0.035340,
2025-10-14T02:35:36.171559+00:00,10.375000,-0.033440,
2025-10-14T02:35:36.176559+00:00,10.380000,-0.163400,
2025-10-14T02:35:36.181559+00:00,10.385000,-0.087780,
2025-10-14T02:35:36.186559+00:00,10.390000,-0.029640,
2025-10-14T02:35:36.191559+00:00,10.395000,-0.104880,
2025-10-14T02:35:36.196559+00:00,10.400000,-0.052820,
2025-10-14T02:35:36.201559+00:00,10.405000,0.033820,
2025-10-14T02:35:36.206559+00:00,10.410000,-0.059280,
2025-10-14T02:35:36.211559+00:00,10.415000,-0.092340,
2025-10-14T02:35:36.216559+00:00,10.420000,0.023560,
2025-10-14T02:35:36.221559+00:00,10.425000,0.000760,
2025-10-14T02:35:36.226559+00:00,10.430000,-0.088160,
2025-10-14T02:35:36.231559+00:00,10.435000,-0.007980,
2025-10-14T02:35:36.236559+00:00,10.440000,0.022800,
2025-10-14T02:35:36.241559+00:00,10.445000,-0.085500,
2025-10-14T02:35:36.246559+00:00,10.450000,-0.062700,
2025-10-14T02:35:36.251559+00:00,10.455000,0.009500,
2025-10-14T02:35:36.256559+00:00,10.460000,-0.072580,
2025-10-14T02:35:36.261559+00:00,10.465000,-0.080180,
2025-10-14T02:35:36.266559+00:00,10.470000,0.041420,
2025-10-14T02:35:36.271559+00:00,10.475000,-0.004940,
2025-10-14T02:35:36.276559+00:00,10.480000,-0.114760,
2025-10-14T02:35:36.281559+00:00,10.485000,-0.037620,
2025-10-14T02:35:36.286559+00:00,10.490000,0.000000,
2025-10-14T02:35:36.291559+00:00,10.495000,-0.102980,
2025-10-14T02:35:36.296559+00:00,10.500000,-0.074100,
2025-10-14T02:35:36.301559+00:00,10.505000,0.006840,
2025-10-14T02:35:36.306559+00:00,10.510000,-0.076380,
2025-10-14T02:35:36.311559+00:00,10.515000,-0.097660,
2025-10-14T02:35:36.316559+00:00,10.520000,0.008740,
2025-10-14T02:35:36.321559+00:00,10.525000,-0.036860,
2025-10-14T02:35:36.326559+00:00,10.530000,-0.119700,
2025-10-14T02:35:36.331559+00:00,10.535000,-0.005320,
2025-10-14T02:35:36.336559+00:00,10.540000,0.053960,
2025-10-14T02:35:36.341559+00:00,10.545000,-0.052440,
2025-10-14T02:35:36.346559+00:00,10.550000,-0.045600,
2025-10-14T02:35:36.351559+00:00,10.555000,0.011020,
2025-10-14T02:35:36.356559+00:00,10.560000,-0.071060,
2025-10-14T02:35:36.361559+00:00,10.565000,-0.067640,
2025-10-14T02:35:36.366559+00:00,10.570000,0.047880,
2025-10-14T02:35:36.371559+00:00,10.575000,-0.036100,
2025-10-14T02:35:36.376559+00:00,10.580000,-0.186580,
2025-10-14T02:35:36.381559+00:00,10.585000,-0.106780,
2025-10-14T02:35:36.386559+00:00,10.590000,-0.009120,
2025-10-14T02:35:36.391559+00:00,10.595000,-0.047500,
2025-10-14T02:35:36.396559+00:00,10.600000,-0.001900,
2025-10-14T02:35:36.401559+00:00,10.605000,0.055860,
2025-10-14T02:35:36.406559+00:00,10.610000,-0.034580,
2025-10-14T02:35:36.411559+00:00,10.615000,-0.042180,
2025-10-14T02:35:36.416559+00:00,10.620000,0.059280,
2025-10-14T02:35:36.421559+00:00,10.625000,-0.021280,
2025-10-14T02:35:36.426559+00:00,10.630000,-0.144020,
2025-10-14T02:35:36.431559+00:00,10.635000,-0.057000,
2025-10-14T02:35:36.436559+00:00,10.640000,-0.010260,
2025-10-14T02:35:36.441559+00:00,10.645000,-0.098420,
2025-10-14T02:35:36.446559+00:00,10.650000,-0.038760,
2025-10-14T02:35:36.451559+00:00,10.655000,0.059660,
2025-10-14T02:35:36.456559+00:00,10.660000,-0.032680,
2025-10-14T02:35:36.461559+00:00,10.665000,-0.083600,
2025-10-14T02:35:36.466559+00:00,10.670000,-0.003800,
2025-10-14T02:35:36.471559+00:00,10.675000,-0.055480,
2025-10-14T02:35:36.476559+00:00,10.680000,-0.135660,
2025-10-14T02:35:36.481559+00:00,10.685000,-0.036100,
2025-10-14T02:35:36.486559+00:00,10.690000,-0.001140,
2025-10-14T02:35:36.491559+00:00,10.695000,-0.106020,
2025-10-14T02:35:36.496559+00:00,10.700000,-0.060800,
2025-10-14T02:35:36.501559+00:00,10.705000,0.036100,
2025-10-14T02:35:36.506559+00:00,10.710000,-0.044460,
2025-10-14T02:35:36.511559+00:00,10.715000,-0.069540,
2025-10-14T02:35:36.516559+00:00,10.720000,0.034200,
2025-10-14T02:35:36.521559+00:00,10.725000,-0.006840,
2025-10-14T02:35:36.526559+00:00,10.730000,-0.098420,
2025-10-14T02:35:36.531559+00:00,10.735000,-0.023940,
2025-10-14T02:35:36.536559+00:00,10.740000,-0.019380,
2025-10-14T02:35:36.541559+00:00,10.745000,-0.150480,
2025-10-14T02:35:36.546559+00:00,10.750000,-0.119320,
2025-10-14T02:35:36.551559+00:00,10.755000,-0.012920,
2025-10-14T02:35:36.556559+00:00,10.760000,-0.057380,
2025-10-14T02:35:36.561559+00:00,10.765000,-0.056620,
2025-10-14T02:35:36.566559+00:00,10.770000,0.030020,
2025-10-14T02:35:36.571559+00:00,10.775000,-0.054720,
2025-10-14T02:35:36.576559+00:00,10.780000,-0.156940,
2025-10-14T02:35:36.581559+00:00,10.785000,-0.044460,
2025-10-14T02:35:36.586559+00:00,10.790000,0.019000,
2025-10-14T02:35:36.591559+00:00,10.795000,-0.075240,
2025-10-14T02:35:36.596559+00:00,10.800000,-0.035720,
2025-10-14T02:35:36.601559+00:00,10.805000,0.043320,
2025-10-14T02:35:36.606559+00:00,10.810000,-0.053960,
2025-10-14T02:35:36.611559+00:00,10.815000,-0.091580,
2025-10-14T02:35:36.616559+00:00,10.820000,0.023940,
2025-10-14T02:35:36.621559+00:00,10.825000,0.008360,
2025-10-14T02:35:36.626559+00:00,10.830000,-0.077140,
2025-10-14T02:35:36.631559+00:00,10.835000,-0.032300,
2025-10-14T02:35:36.636559+00:00,10.840000,-0.057380,
2025-10-14T02:35:36.641559+00:00,10.845000,-0.164160,
2025-10-14T02:35:36.646559+00:00,10.850000,-0.071440,
2025-10-14T02:35:36.651559+00:00,10.855000,0.049780,
2025-10-14T02:35:36.656559+00:00,10.860000,-0.048260,
2025-10-14T02:35:36.661559+00:00,10.865000,-0.091580,
2025-10-14T02:35:36.666559+00:00,10.870000,0.026980,
2025-10-14T02:35:36.671559+00:00,10.875000,0.010260,
2025-10-14T02:35:36.676559+00:00,10.880000,-0.070680,
2025-10-14T02:35:36.681559+00:00,10.885000,-0.014060,
2025-10-14T02:35:36.686559+00:00,10.890000,-0.028880,
2025-10-14T02:35:36.691559+00:00,10.895000,-0.141360,
2025-10-14T02:35:36.696559+00:00,10.900000,-0.068400,
2025-10-14T02:35:36.701559+00:00,10.905000,0.038000,
2025-10-14T02:35:36.706559+00:00,10.910000,-0.053580,
2025-10-14T02:35:36.711559+00:00,10.915000,-0.085880,
2025-10-14T02:35:36.716559+00:00,10.920000,0.024700,
2025-10-14T02:35:36.721559+00:00,10.925000,-0.017480,
2025-10-14T02:35:36.726559+00:00,10.930000,-0.115900,
2025-10-14T02:35:36.731559+00:00,10.935000,-0.027740,
2025-10-14T02:35:36.736559+00:00,10.940000,0.033820,
2025-10-14T02:35:36.741559+00:00,10.945000,-0.036100,
2025-10-14T02:35:36.746559+00:00,10.950000,-0.014060,
2025-10-14T02:35:36.751559+00:00,10.955000,0.009500,
2025-10-14T02:35:36.756559+00:00,10.960000,-0.099180,
2025-10-14T02:35:36.761559+00:00,10.965000,-0.087400,
2025-10-14T02:35:36.766559+00:00,10.970000,0.042560,
2025-10-14T02:35:36.771559+00:00,10.975000,-0.033440,
2025-10-14T02:35:36.776559+00:00,10.980000,-0.164920,
2025-10-14T02:35:36.781559+00:00,10.985000,-0.076000,
2025-10-14T02:35:36.786559+00:00,10.990000,-0.003800,
2025-10-14T02:35:36.791559+00:00,10.995000,-0.070680,
2025-10-14T02:35:36.796559+00:00,11.000000,-0.023180,
2025-10-14T02:35:36.801559+00:00,11.005000,0.042940,
2025-10-14T02:35:36.806559+00:00,11.010000,-0.056620,
2025-10-14T02:35:36.811559+00:00,11.015000,-0.071060,
2025-10-14T02:35:36.816559+00:00,11.020000,0.053200,
2025-10-14T02:35:36.821559+00:00,11.025000,0.012160,
2025-10-14T02:35:36.826559+00:00,11.030000,-0.103740,
2025-10-14T02:35:36.831559+00:00,11.035000,-0.054720,
2025-10-14T02:35:36.836559+00:00,11.040000,-0.045980,
2025-10-14T02:35:36.841559+00:00,11.045000,-0.128060,
2025-10-14T02:35:36.846559+00:00,11.050000,-0.044460,
2025-10-14T02:35:36.851559+00:00,11.055000,0.039900,
2025-10-14T02:35:36.856559+00:00,11.060000,-0.082840,
2025-10-14T02:35:36.861559+00:00,11.065000,-0.120080,
2025-10-14T02:35:36.866559+00:00,11.070000,0.001520,
2025-10-14T02:35:36.871559+00:00,11.075000,-0.018240,
2025-10-14T02:35:36.876559+00:00,11.080000,-0.086260,
2025-10-14T02:35:36.881559+00:00,11.085000,-0.003800,
2025-10-14T02:35:36.886559+00:00,11.090000,-0.010640,
2025-10-14T02:35:36.891559+00:00,11.095000,-0.130720,
2025-10-14T02:35:36.896559+00:00,11.100000,-0.066120,
2025-10-14T02:35:36.901559+00:00,11.105000,0.036100,
2025-10-14T02:35:36.906559+00:00,11.110000,-0.062700,
2025-10-14T02:35:36.911559+00:00,11.115000,-0.108300,
2025-10-14T02:35:36.916559+00:00,11.120000,-0.015200,
2025-10-14T02:35:36.921559+00:00,11.125000,-0.049400,
2025-10-14T02:35:36.926559+00:00,11.130000,-0.107920,
2025-10-14T02:35:36.931559+00:00,11.135000,-0.007980,
2025-10-14T02:35:36.936559+00:00,11.140000,0.005700,
2025-10-14T02:35:36.941559+00:00,11.145000,-0.104500,
2025-10-14T02:35:36.946559+00:00,11.150000,-0.055860,
2025-10-14T02:35:36.951559+00:00,11.155000,0.033060,
2025-10-14T02:35:36.956559+00:00,11.160000,-0.046360,
2025-10-14T02:35:36.961559+00:00,11.165000,-0.057000,
2025-10-14T02:35:36.966559+00:00,11.170000,0.040280,
2025-10-14T02:35:36.971559+00:00,11.175000,-0.041420,
2025-10-14T02:35:36.976559+00:00,11.180000,-0.156940,
2025-10-14T02:35:36.981559+00:00,11.185000,-0.068400,
2025-10-14T02:35:36.986559+00:00,11.190000,-0.017860,
2025-10-14T02:35:36.991559+00:00,11.195000,-0.079420,
2025-10-14T02:35:36.996559+00:00,11.200000,-0.001900,
2025-10-14T02:35:37.001559+00:00,11.205000,0.084740,
2025-10-14T02:35:37.006559+00:00,11.210000,-0.024700,
2025-10-14T02:35:37.011559+00:00,11.215000,-0.075620,
2025-10-14T02:35:37.016559+00:00,11.220000,0.003800,
2025-10-14T02:35:37.021559+00:00,11.225000,-0.053200,
2025-10-14T02:35:37.026559+00:00,11.230000,-0.124640,
2025-10-14T02:35:37.031559+00:00,11.235000,-0.020520,
2025-10-14T02:35:37.036559+00:00,11.240000,0.007600,
2025-10-14T02:35:37.041559+00:00,11.245000,-0.079420,
2025-10-14T02:35:37.046559+00:00,11.250000,-0.007980,
2025-10-14T02:35:37.051559+00:00,11.255000,0.072960,
2025-10-14T02:35:37.056559+00:00,11.260000,-0.044840,
2025-10-14T02:35:37.061559+00:00,11.265000,-0.099940,
2025-10-14T02:35:37.066559+00:00,11.270000,-0.012920,
2025-10-14T02:35:37.071559+00:00,11.275000,-0.052440,
2025-10-14T02:35:37.076559+00:00,11.280000,-0.099940,
2025-10-14T02:35:37.081559+00:00,11.285000,0.014820,
2025-10-14T02:35:37.086559+00:00,11.290000,0.019380,
2025-10-14T02:35:37.091559+00:00,11.295000,-0.110960,
2025-10-14T02:35:37.096559+00:00,11.300000,-0.063080,
2025-10-14T02:35:37.101559+00:00,11.305000,0.034580,
2025-10-14T02:35:37.106559+00:00,11.310000,-0.053200,
2025-10-14T02:35:37.111559+00:00,11.315000,-0.077900,
2025-10-14T02:35:37.116559+00:00,11.320000,0.019760,
2025-10-14T02:35:37.121559+00:00,11.325000,-0.039900,
2025-10-14T02:35:37.126559+00:00,11.330000,-0.123500,
