timestamp_utc,t_rel_sec,ecg_mV,event
2025-10-16T06:44:43.525545+00:00,0.000000,0.000000,
2025-10-16T06:44:43.530545+00:00,0.005000,0.000000,
2025-10-16T06:44:43.535545+00:00,0.010000,-0.001140,
2025-10-16T06:44:43.540545+00:00,0.015000,0.000760,
2025-10-16T06:44:43.545545+00:00,0.020000,0.012540,
2025-10-16T06:44:43.550545+00:00,0.025000,-0.072200,
2025-10-16T06:44:43.555545+00:00,0.030000,0.027740,
2025-10-16T06:44:43.560545+00:00,0.035000,0.367460,
2025-10-16T06:44:43.565545+00:00,0.040000,-0.606100,
2025-10-16T06:44:43.570545+00:00,0.045000,-1.087940,
2025-10-16T06:44:43.575545+00:00,0.050000,2.215780,
2025-10-16T06:44:43.580545+00:00,0.055000,3.016060,
2025-10-16T06:44:43.585545+00:00,0.060000,-4.674760,
2025-10-16T06:44:43.590545+00:00,0.065000,-10.771860,
2025-10-16T06:44:43.595545+00:00,0.070000,-0.651700,
2025-10-16T06:44:43.600545+00:00,0.075000,22.480040,
2025-10-16T06:44:43.605545+00:00,0.080000,38.093860,
2025-10-16T06:44:43.610545+00:00,0.085000,33.639500,
2025-10-16T06:44:43.615545+00:00,0.090000,19.271320,
2025-10-16T06:44:43.620545+00:00,0.095000,12.414980,
2025-10-16T06:44:43.625545+00:00,0.100000,14.723100,
2025-10-16T06:44:43.630545+00:00,0.105000,16.118460,
2025-10-16T06:44:43.635545+00:00,0.110000,14.698780,
2025-10-16T06:44:43.640545+00:00,0.115000,14.075960,
2025-10-16T06:44:43.645545+00:00,0.120000,13.955120,
2025-10-16T06:44:43.650545+00:00,0.125000,13.543960,
2025-10-16T06:44:43.655545+00:00,0.130000,13.140400,
2025-10-16T06:44:43.660545+00:00,0.135000,12.829940,
2025-10-16T06:44:43.665545+00:00,0.140000,12.710240,
2025-10-16T06:44:43.670545+00:00,0.145000,12.979660,
2025-10-16T06:44:43.675545+00:00,0.150000,13.482400,
2025-10-16T06:44:43.680545+00:00,0.155000,13.372200,
2025-10-16T06:44:43.685545+00:00,0.160000,12.024340,
2025-10-16T06:44:43.690545+00:00,0.165000,10.084060,
2025-10-16T06:44:43.695545+00:00,0.170000,8.788260,
2025-10-16T06:44:43.700545+00:00,0.175000,8.326180,
2025-10-16T06:44:43.705545+00:00,0.180000,7.706020,
2025-10-16T06:44:43.710545+00:00,0.185000,6.394640,
2025-10-16T06:44:43.715545+00:00,0.190000,5.098840,
2025-10-16T06:44:43.720545+00:00,0.195000,4.615480,
2025-10-16T06:44:43.725545+00:00,0.200000,4.638660,
2025-10-16T06:44:43.730545+00:00,0.205000,4.399260,
2025-10-16T06:44:43.735545+00:00,0.210000,3.863840,
2025-10-16T06:44:43.740545+00:00,0.215000,3.485360,
2025-10-16T06:44:43.745545+00:00,0.220000,3.380860,
2025-10-16T06:44:43.750545+00:00,0.225000,3.329180,
2025-10-16T06:44:43.755545+00:00,0.230000,3.208720,
2025-10-16T06:44:43.760545+00:00,0.235000,3.089020,
2025-10-16T06:44:43.765545+00:00,0.240000,3.009600,
2025-10-16T06:44:43.770545+00:00,0.245000,2.935500,
2025-10-16T06:44:43.775545+00:00,0.250000,2.862160,
2025-10-16T06:44:43.780545+00:00,0.255000,2.796800,
2025-10-16T06:44:43.785545+00:00,0.260000,2.728780,
2025-10-16T06:44:43.790545+00:00,0.265000,2.652780,
2025-10-16T06:44:43.795545+00:00,0.270000,2.584380,
2025-10-16T06:44:43.800545+00:00,0.275000,2.532700,
2025-10-16T06:44:43.805545+00:00,0.280000,2.496980,
2025-10-16T06:44:43.810545+00:00,0.285000,2.461640,
2025-10-16T06:44:43.815545+00:00,0.290000,2.420980,
2025-10-16T06:44:43.820545+00:00,0.295000,2.371960,
2025-10-16T06:44:43.825545+00:00,0.300000,2.320660,
2025-10-16T06:44:43.830545+00:00,0.305000,2.266320,
2025-10-16T06:44:43.835545+00:00,0.310000,2.220720,
2025-10-16T06:44:43.840545+00:00,0.315000,2.188040,
2025-10-16T06:44:43.845545+00:00,0.320000,2.158780,
2025-10-16T06:44:43.850545+00:00,0.325000,2.120020,
2025-10-16T06:44:43.855545+00:00,0.330000,2.077840,
2025-10-16T06:44:43.860545+00:00,0.335000,2.045160,
2025-10-16T06:44:43.865545+00:00,0.340000,2.019320,
2025-10-16T06:44:43.870545+00:00,0.345000,1.982460,
2025-10-16T06:44:43.875545+00:00,0.350000,1.933820,
2025-10-16T06:44:43.880545+00:00,0.355000,1.893540,
2025-10-16T06:44:43.885545+00:00,0.360000,1.875680,
2025-10-16T06:44:43.890545+00:00,0.365000,1.865800,
2025-10-16T06:44:43.895545+00:00,0.370000,1.841100,
2025-10-16T06:44:43.900545+00:00,0.375000,1.790940,
2025-10-16T06:44:43.905545+00:00,0.380000,1.732800,
2025-10-16T06:44:43.910545+00:00,0.385000,1.687580,
2025-10-16T06:44:43.915545+00:00,0.390000,1.662500,
2025-10-16T06:44:43.920545+00:00,0.395000,1.643500,
2025-10-16T06:44:43.925545+00:00,0.400000,1.624880,
2025-10-16T06:44:43.930545+00:00,0.405000,1.605500,
2025-10-16T06:44:43.935545+00:00,0.410000,1.581940,
2025-10-16T06:44:43.940545+00:00,0.415000,1.556100,
2025-10-16T06:44:43.945545+00:00,0.420000,1.523040,
2025-10-16T06:44:43.950545+00:00,0.425000,1.483900,
2025-10-16T06:44:43.955545+00:00,0.430000,1.447420,
2025-10-16T06:44:43.960545+00:00,0.435000,1.429180,
2025-10-16T06:44:43.965545+00:00,0.440000,1.425760,
2025-10-16T06:44:43.970545+00:00,0.445000,1.420060,
2025-10-16T06:44:43.975545+00:00,0.450000,1.397260,
2025-10-16T06:44:43.980545+00:00,0.455000,1.362300,
2025-10-16T06:44:43.985545+00:00,0.460000,1.331520,
2025-10-16T06:44:43.990545+00:00,0.465000,1.313280,
2025-10-16T06:44:43.995545+00:00,0.470000,1.301500,
2025-10-16T06:44:44.000545+00:00,0.475000,1.287060,
2025-10-16T06:44:44.005545+00:00,0.480000,1.267680,
2025-10-16T06:44:44.010545+00:00,0.485000,1.242980,
2025-10-16T06:44:44.015545+00:00,0.490000,1.219800,
2025-10-16T06:44:44.020545+00:00,0.495000,1.205740,
2025-10-16T06:44:44.025545+00:00,0.500000,1.193580,
2025-10-16T06:44:44.030545+00:00,0.505000,1.171160,
2025-10-16T06:44:44.035545+00:00,0.510000,1.138860,
2025-10-16T06:44:44.040545+00:00,0.515000,1.114920,
2025-10-16T06:44:44.045545+00:00,0.520000,1.105040,
2025-10-16T06:44:44.050545+00:00,0.525000,1.098580,
2025-10-16T06:44:44.055545+00:00,0.530000,1.081860,
2025-10-16T06:44:44.060545+00:00,0.535000,1.057540,
2025-10-16T06:44:44.065545+00:00,0.540000,1.030940,
2025-10-16T06:44:44.070545+00:00,0.545000,1.005100,
2025-10-16T06:44:44.075545+00:00,0.550000,0.982300,
2025-10-16T06:44:44.080545+00:00,0.555000,0.966340,
2025-10-16T06:44:44.085545+00:00,0.560000,0.951140,
2025-10-16T06:44:44.090545+00:00,0.565000,0.940500,
2025-10-16T06:44:44.095545+00:00,0.570000,0.934040,
2025-10-16T06:44:44.100545+00:00,0.575000,0.921120,
2025-10-16T06:44:44.105545+00:00,0.580000,0.893760,
2025-10-16T06:44:44.110545+00:00,0.585000,0.870200,
2025-10-16T06:44:44.115545+00:00,0.590000,0.866400,
2025-10-16T06:44:44.120545+00:00,0.595000,0.875140,
2025-10-16T06:44:44.125545+00:00,0.600000,0.875520,
2025-10-16T06:44:44.130545+00:00,0.605000,0.856520,
2025-10-16T06:44:44.135545+00:00,0.610000,0.829920,
2025-10-16T06:44:44.140545+00:00,0.615000,0.812060,
2025-10-16T06:44:44.145545+00:00,0.620000,0.804080,
2025-10-16T06:44:44.150545+00:00,0.625000,0.797620,
2025-10-16T06:44:44.155545+00:00,0.630000,0.783180,
2025-10-16T06:44:44.160545+00:00,0.635000,0.758860,
2025-10-16T06:44:44.165545+00:00,0.640000,0.731880,
2025-10-16T06:44:44.170545+00:00,0.645000,0.709460,
2025-10-16T06:44:44.175545+00:00,0.650000,0.699200,
2025-10-16T06:44:44.180545+00:00,0.655000,0.694260,
2025-10-16T06:44:44.185545+00:00,0.660000,0.685520,
2025-10-16T06:44:44.190545+00:00,0.665000,0.673360,
2025-10-16T06:44:44.195545+00:00,0.670000,0.663100,
2025-10-16T06:44:44.200545+00:00,0.675000,0.655500,
2025-10-16T06:44:44.205545+00:00,0.680000,0.650180,
2025-10-16T06:44:44.210545+00:00,0.685000,0.644480,
2025-10-16T06:44:44.215545+00:00,0.690000,0.636500,
2025-10-16T06:44:44.220545+00:00,0.695000,0.620160,
2025-10-16T06:44:44.225545+00:00,0.700000,0.601160,
2025-10-16T06:44:44.230545+00:00,0.705000,0.590140,
2025-10-16T06:44:44.235545+00:00,0.710000,0.582160,
2025-10-16T06:44:44.240545+00:00,0.715000,0.574180,
2025-10-16T06:44:44.245545+00:00,0.720000,0.565440,
2025-10-16T06:44:44.250545+00:00,0.725000,0.557080,
2025-10-16T06:44:44.255545+00:00,0.730000,0.544920,
2025-10-16T06:44:44.260545+00:00,0.735000,0.530100,
2025-10-16T06:44:44.265545+00:00,0.740000,0.512620,
2025-10-16T06:44:44.270545+00:00,0.745000,0.490960,
2025-10-16T06:44:44.275545+00:00,0.750000,0.475760,
2025-10-16T06:44:44.280545+00:00,0.755000,0.472720,
2025-10-16T06:44:44.285545+00:00,0.760000,0.469300,
2025-10-16T06:44:44.290545+00:00,0.765000,0.462840,
2025-10-16T06:44:44.295545+00:00,0.770000,0.457520,
2025-10-16T06:44:44.300545+00:00,0.775000,0.450300,
2025-10-16T06:44:44.305545+00:00,0.780000,0.443840,
2025-10-16T06:44:44.310545+00:00,0.785000,0.441560,
2025-10-16T06:44:44.315545+00:00,0.790000,0.442320,
2025-10-16T06:44:44.320545+00:00,0.795000,0.438140,
2025-10-16T06:44:44.325545+00:00,0.800000,0.428640,
2025-10-16T06:44:44.330545+00:00,0.805000,0.418000,
2025-10-16T06:44:44.335545+00:00,0.810000,0.409260,
2025-10-16T06:44:44.340545+00:00,0.815000,0.403940,
2025-10-16T06:44:44.345545+00:00,0.820000,0.395960,
2025-10-16T06:44:44.350545+00:00,0.825000,0.388360,
2025-10-16T06:44:44.355545+00:00,0.830000,0.392160,
2025-10-16T06:44:44.360545+00:00,0.835000,0.402040,
2025-10-16T06:44:44.365545+00:00,0.840000,0.396720,
2025-10-16T06:44:44.370545+00:00,0.845000,0.367080,
2025-10-16T06:44:44.375545+00:00,0.850000,0.335540,
2025-10-16T06:44:44.380545+00:00,0.855000,0.320720,
2025-10-16T06:44:44.385545+00:00,0.860000,0.321860,
2025-10-16T06:44:44.390545+00:00,0.865000,0.326800,
2025-10-16T06:44:44.395545+00:00,0.870000,0.326420,
2025-10-16T06:44:44.400545+00:00,0.875000,0.320340,
2025-10-16T06:44:44.405545+00:00,0.880000,0.313500,
2025-10-16T06:44:44.410545+00:00,0.885000,0.309320,
2025-10-16T06:44:44.415545+00:00,0.890000,0.304000,
2025-10-16T06:44:44.420545+00:00,0.895000,0.295640,
2025-10-16T06:44:44.425545+00:00,0.900000,0.284240,
2025-10-16T06:44:44.430545+00:00,0.905000,0.276260,
2025-10-16T06:44:44.435545+00:00,0.910000,0.273220,
2025-10-16T06:44:44.440545+00:00,0.915000,0.272460,
2025-10-16T06:44:44.445545+00:00,0.920000,0.267140,
2025-10-16T06:44:44.450545+00:00,0.925000,0.254600,
2025-10-16T06:44:44.455545+00:00,0.930000,0.242820,
2025-10-16T06:44:44.460545+00:00,0.935000,0.242820,
2025-10-16T06:44:44.465545+00:00,0.940000,0.251560,
2025-10-16T06:44:44.470545+00:00,0.945000,0.258400,
2025-10-16T06:44:44.475545+00:00,0.950000,0.254600,
2025-10-16T06:44:44.480545+00:00,0.955000,0.242440,
2025-10-16T06:44:44.485545+00:00,0.960000,0.228380,
2025-10-16T06:44:44.490545+00:00,0.965000,0.219640,
2025-10-16T06:44:44.495545+00:00,0.970000,0.216600,
2025-10-16T06:44:44.500545+00:00,0.975000,0.213940,
2025-10-16T06:44:44.505545+00:00,0.980000,0.210900,
2025-10-16T06:44:44.510545+00:00,0.985000,0.208620,
2025-10-16T06:44:44.515545+00:00,0.990000,0.202920,
2025-10-16T06:44:44.520545+00:00,0.995000,0.192280,
2025-10-16T06:44:44.525545+00:00,1.000000,0.185820,
2025-10-16T06:44:44.530545+00:00,1.005000,0.182780,
2025-10-16T06:44:44.535545+00:00,1.010000,0.180500,
2025-10-16T06:44:44.540545+00:00,1.015000,0.175180,
2025-10-16T06:44:44.545545+00:00,1.020000,0.175940,
2025-10-16T06:44:44.550545+00:00,1.025000,0.180120,
2025-10-16T06:44:44.555545+00:00,1.030000,0.182400,
2025-10-16T06:44:44.560545+00:00,1.035000,0.175560,
2025-10-16T06:44:44.565545+00:00,1.040000,0.164920,
2025-10-16T06:44:44.570545+00:00,1.045000,0.160740,
2025-10-16T06:44:44.575545+00:00,1.050000,0.164920,
2025-10-16T06:44:44.580545+00:00,1.055000,0.167580,
2025-10-16T06:44:44.585545+00:00,1.060000,0.157320,
2025-10-16T06:44:44.590545+00:00,1.065000,0.140980,
2025-10-16T06:44:44.595545+00:00,1.070000,0.137180,
2025-10-16T06:44:44.600545+00:00,1.075000,0.149340,
2025-10-16T06:44:44.605545+00:00,1.080000,0.160740,
2025-10-16T06:44:44.610545+00:00,1.085000,0.159600,
2025-10-16T06:44:44.615545+00:00,1.090000,0.147440,
2025-10-16T06:44:44.620545+00:00,1.095000,0.137940,
2025-10-16T06:44:44.625545+00:00,1.100000,0.141360,
2025-10-16T06:44:44.630545+00:00,1.105000,0.147820,
2025-10-16T06:44:44.635545+00:00,1.110000,0.148200,
2025-10-16T06:44:44.640545+00:00,1.115000,0.146680,
2025-10-16T06:44:44.645545+00:00,1.120000,0.137560,
2025-10-16T06:44:44.650545+00:00,1.125000,0.125400,
2025-10-16T06:44:44.655545+00:00,1.130000,0.123120,
2025-10-16T06:44:44.660545+00:00,1.135000,0.128060,
2025-10-16T06:44:44.665545+00:00,1.140000,0.130340,
2025-10-16T06:44:44.670545+00:00,1.145000,0.125780,
2025-10-16T06:44:44.675545+00:00,1.150000,0.124640,
2025-10-16T06:44:44.680545+00:00,1.155000,0.120460,
2025-10-16T06:44:44.685545+00:00,1.160000,0.110200,
2025-10-16T06:44:44.690545+00:00,1.165000,0.103360,
2025-10-16T06:44:44.695545+00:00,1.170000,0.106780,
2025-10-16T06:44:44.700545+00:00,1.175000,0.112100,
2025-10-16T06:44:44.705545+00:00,1.180000,0.106020,
2025-10-16T06:44:44.710545+00:00,1.185000,0.093480,
2025-10-16T06:44:44.715545+00:00,1.190000,0.097280,
2025-10-16T06:44:44.720545+00:00,1.195000,0.110200,
2025-10-16T06:44:44.725545+00:00,1.200000,0.114380,
2025-10-16T06:44:44.730545+00:00,1.205000,0.105260,
2025-10-16T06:44:44.735545+00:00,1.210000,0.098420,
2025-10-16T06:44:44.740545+00:00,1.215000,0.094240,
2025-10-16T06:44:44.745545+00:00,1.220000,0.086640,
2025-10-16T06:44:44.750545+00:00,1.225000,0.075620,
2025-10-16T06:44:44.755545+00:00,1.230000,0.073340,
2025-10-16T06:44:44.760545+00:00,1.235000,0.080940,
2025-10-16T06:44:44.765545+00:00,1.240000,0.083980,
2025-10-16T06:44:44.770545+00:00,1.245000,0.076000,
2025-10-16T06:44:44.775545+00:00,1.250000,0.066500,
2025-10-16T06:44:44.780545+00:00,1.255000,0.061560,
2025-10-16T06:44:44.785545+00:00,1.260000,0.060420,
2025-10-16T06:44:44.790545+00:00,1.265000,0.058520,
2025-10-16T06:44:44.795545+00:00,1.270000,0.057760,
2025-10-16T06:44:44.800545+00:00,1.275000,0.060800,
2025-10-16T06:44:44.805545+00:00,1.280000,0.066880,
2025-10-16T06:44:44.810545+00:00,1.285000,0.073720,
2025-10-16T06:44:44.815545+00:00,1.290000,0.073720,
2025-10-16T06:44:44.820545+00:00,1.295000,0.060420,
2025-10-16T06:44:44.825545+00:00,1.300000,0.039520,
2025-10-16T06:44:44.830545+00:00,1.305000,0.028880,
2025-10-16T06:44:44.835545+00:00,1.310000,0.039140,
2025-10-16T06:44:44.840545+00:00,1.315000,0.060040,
2025-10-16T06:44:44.845545+00:00,1.320000,0.071440,
2025-10-16T06:44:44.850545+00:00,1.325000,0.064220,
2025-10-16T06:44:44.855545+00:00,1.330000,0.055100,
2025-10-16T06:44:44.860545+00:00,1.335000,0.056240,
2025-10-16T06:44:44.865545+00:00,1.340000,0.058520,
2025-10-16T06:44:44.870545+00:00,1.345000,0.051300,
2025-10-16T06:44:44.875545+00:00,1.350000,0.046360,
2025-10-16T06:44:44.880545+00:00,1.355000,0.049020,
2025-10-16T06:44:44.885545+00:00,1.360000,0.053200,
2025-10-16T06:44:44.890545+00:00,1.365000,0.043320,
2025-10-16T06:44:44.895545+00:00,1.370000,0.028120,
2025-10-16T06:44:44.900545+00:00,1.375000,0.026600,
2025-10-16T06:44:44.905545+00:00,1.380000,0.044840,
2025-10-16T06:44:44.910545+00:00,1.385000,0.059660,
2025-10-16T06:44:44.915545+00:00,1.390000,0.055100,
2025-10-16T06:44:44.920545+00:00,1.395000,0.042180,
2025-10-16T06:44:44.925545+00:00,1.400000,0.036860,
2025-10-16T06:44:44.930545+00:00,1.405000,0.038000,
2025-10-16T06:44:44.935545+00:00,1.410000,0.034200,
2025-10-16T06:44:44.940545+00:00,1.415000,0.026980,
2025-10-16T06:44:44.945545+00:00,1.420000,0.026980,
2025-10-16T06:44:44.950545+00:00,1.425000,0.032300,
2025-10-16T06:44:44.955545+00:00,1.430000,0.032300,
2025-10-16T06:44:44.960545+00:00,1.435000,0.021660,
2025-10-16T06:44:44.965545+00:00,1.440000,0.010640,
2025-10-16T06:44:44.970545+00:00,1.445000,0.002280,
2025-10-16T06:44:44.975545+00:00,1.450000,-0.005700,
2025-10-16T06:44:44.980545+00:00,1.455000,-0.009500,
2025-10-16T06:44:44.985545+00:00,1.460000,-0.010640,
2025-10-16T06:44:44.990545+00:00,1.465000,-0.008360,
2025-10-16T06:44:44.995545+00:00,1.470000,-0.004560,
2025-10-16T06:44:45.000545+00:00,1.475000,-0.001520,
2025-10-16T06:44:45.005545+00:00,1.480000,-0.000380,
2025-10-16T06:44:45.010545+00:00,1.485000,0.003420,
2025-10-16T06:44:45.015545+00:00,1.490000,0.004180,
2025-10-16T06:44:45.020545+00:00,1.495000,0.001140,
2025-10-16T06:44:45.025545+00:00,1.500000,0.002280,
2025-10-16T06:44:45.030545+00:00,1.505000,0.016720,
2025-10-16T06:44:45.035545+00:00,1.510000,0.024700,
2025-10-16T06:44:45.040545+00:00,1.515000,0.011780,
2025-10-16T06:44:45.045545+00:00,1.520000,-0.007980,
2025-10-16T06:44:45.050545+00:00,1.525000,-0.011400,
2025-10-16T06:44:45.055545+00:00,1.530000,-0.000380,
2025-10-16T06:44:45.060545+00:00,1.535000,0.010260,
2025-10-16T06:44:45.065545+00:00,1.540000,0.004560,
2025-10-16T06:44:45.070545+00:00,1.545000,-0.007600,
2025-10-16T06:44:45.075545+00:00,1.550000,-0.012920,
2025-10-16T06:44:45.080545+00:00,1.555000,-0.006460,
2025-10-16T06:44:45.085545+00:00,1.560000,0.003800,
2025-10-16T06:44:45.090545+00:00,1.565000,0.001900,
2025-10-16T06:44:45.095545+00:00,1.570000,-0.010640,
2025-10-16T06:44:45.100545+00:00,1.575000,-0.028880,
2025-10-16T06:44:45.105545+00:00,1.580000,-0.039520,
2025-10-16T06:44:45.110545+00:00,1.585000,-0.031920,
2025-10-16T06:44:45.115545+00:00,1.590000,-0.020140,
2025-10-16T06:44:45.120545+00:00,1.595000,-0.013300,
2025-10-16T06:44:45.125545+00:00,1.600000,-0.012920,
2025-10-16T06:44:45.130545+00:00,1.605000,-0.016340,
2025-10-16T06:44:45.135545+00:00,1.610000,-0.022420,
2025-10-16T06:44:45.140545+00:00,1.615000,-0.025080,
2025-10-16T06:44:45.145545+00:00,1.620000,-0.023560,
2025-10-16T06:44:45.150545+00:00,1.625000,-0.025840,
2025-10-16T06:44:45.155545+00:00,1.630000,-0.026600,
2025-10-16T06:44:45.160545+00:00,1.635000,-0.020900,
2025-10-16T06:44:45.165545+00:00,1.640000,-0.014440,
2025-10-16T06:44:45.170545+00:00,1.645000,-0.011400,
2025-10-16T06:44:45.175545+00:00,1.650000,-0.018620,
2025-10-16T06:44:45.180545+00:00,1.655000,-0.023560,
2025-10-16T06:44:45.185545+00:00,1.660000,-0.022800,
2025-10-16T06:44:45.190545+00:00,1.665000,-0.022800,
2025-10-16T06:44:45.195545+00:00,1.670000,-0.028120,
2025-10-16T06:44:45.200545+00:00,1.675000,-0.028500,
2025-10-16T06:44:45.205545+00:00,1.680000,-0.016720,
2025-10-16T06:44:45.210545+00:00,1.685000,-0.005320,
2025-10-16T06:44:45.215545+00:00,1.690000,-0.011020,
2025-10-16T06:44:45.220545+00:00,1.695000,-0.028120,
2025-10-16T06:44:45.225545+00:00,1.700000,-0.035720,
2025-10-16T06:44:45.230545+00:00,1.705000,-0.020900,
2025-10-16T06:44:45.235545+00:00,1.710000,-0.010260,
2025-10-16T06:44:45.240545+00:00,1.715000,-0.017860,
2025-10-16T06:44:45.245545+00:00,1.720000,-0.029260,
2025-10-16T06:44:45.250545+00:00,1.725000,-0.025840,
2025-10-16T06:44:45.255545+00:00,1.730000,-0.019000,
2025-10-16T06:44:45.260545+00:00,1.735000,-0.023940,
2025-10-16T06:44:45.265545+00:00,1.740000,-0.031540,
2025-10-16T06:44:45.270545+00:00,1.745000,-0.028880,
2025-10-16T06:44:45.275545+00:00,1.750000,-0.014820,
2025-10-16T06:44:45.280545+00:00,1.755000,-0.003420,
2025-10-16T06:44:45.285545+00:00,1.760000,-0.005700,
2025-10-16T06:44:45.290545+00:00,1.765000,-0.015580,
2025-10-16T06:44:45.295545+00:00,1.770000,-0.019000,
2025-10-16T06:44:45.300545+00:00,1.775000,-0.019760,
2025-10-16T06:44:45.305545+00:00,1.780000,-0.023180,
2025-10-16T06:44:45.310545+00:00,1.785000,-0.022800,
2025-10-16T06:44:45.315545+00:00,1.790000,-0.021280,
2025-10-16T06:44:45.320545+00:00,1.795000,-0.023940,
2025-10-16T06:44:45.325545+00:00,1.800000,-0.026980,
2025-10-16T06:44:45.330545+00:00,1.805000,-0.024320,
2025-10-16T06:44:45.335545+00:00,1.810000,-0.025840,
2025-10-16T06:44:45.340545+00:00,1.815000,-0.030780,
2025-10-16T06:44:45.345545+00:00,1.820000,-0.031920,
2025-10-16T06:44:45.350545+00:00,1.825000,-0.030020,
2025-10-16T06:44:45.355545+00:00,1.830000,-0.023180,
2025-10-16T06:44:45.360545+00:00,1.835000,-0.012540,
2025-10-16T06:44:45.365545+00:00,1.840000,-0.003800,
2025-10-16T06:44:45.370545+00:00,1.845000,-0.001140,
2025-10-16T06:44:45.375545+00:00,1.850000,-0.006080,
2025-10-16T06:44:45.380545+00:00,1.855000,-0.014060,
2025-10-16T06:44:45.385545+00:00,1.860000,-0.019760,
2025-10-16T06:44:45.390545+00:00,1.865000,-0.022800,
2025-10-16T06:44:45.395545+00:00,1.870000,-0.026980,
2025-10-16T06:44:45.400545+00:00,1.875000,-0.039520,
2025-10-16T06:44:45.405545+00:00,1.880000,-0.045600,
2025-10-16T06:44:45.410545+00:00,1.885000,-0.035340,
2025-10-16T06:44:45.415545+00:00,1.890000,-0.023940,
2025-10-16T06:44:45.420545+00:00,1.895000,-0.025460,
2025-10-16T06:44:45.425545+00:00,1.900000,-0.025460,
2025-10-16T06:44:45.430545+00:00,1.905000,-0.013680,
2025-10-16T06:44:45.435545+00:00,1.910000,-0.003800,
2025-10-16T06:44:45.440545+00:00,1.915000,-0.002660,
2025-10-16T06:44:45.445545+00:00,1.920000,-0.008740,
2025-10-16T06:44:45.450545+00:00,1.925000,-0.012160,
2025-10-16T06:44:45.455545+00:00,1.930000,-0.014440,
2025-10-16T06:44:45.460545+00:00,1.935000,-0.015960,
2025-10-16T06:44:45.465545+00:00,1.940000,-0.018240,
2025-10-16T06:44:45.470545+00:00,1.945000,-0.026600,
2025-10-16T06:44:45.475545+00:00,1.950000,-0.039900,
2025-10-16T06:44:45.480545+00:00,1.955000,-0.050160,
2025-10-16T06:44:45.485545+00:00,1.960000,-0.039140,
2025-10-16T06:44:45.490545+00:00,1.965000,-0.016720,
2025-10-16T06:44:45.495545+00:00,1.970000,-0.013680,
2025-10-16T06:44:45.500545+00:00,1.975000,-0.037240,
2025-10-16T06:44:45.505545+00:00,1.980000,-0.057380,
2025-10-16T06:44:45.510545+00:00,1.985000,-0.050540,
2025-10-16T06:44:45.515545+00:00,1.990000,-0.033060,
2025-10-16T06:44:45.520545+00:00,1.995000,-0.032300,
2025-10-16T06:44:45.525545+00:00,2.000000,-0.044080,
2025-10-16T06:44:45.530545+00:00,2.005000,-0.042560,
2025-10-16T06:44:45.535545+00:00,2.010000,-0.031160,
2025-10-16T06:44:45.540545+00:00,2.015000,-0.033820,
2025-10-16T06:44:45.545545+00:00,2.020000,-0.047500,
2025-10-16T06:44:45.550545+00:00,2.025000,-0.049780,
2025-10-16T06:44:45.555545+00:00,2.030000,-0.033440,
2025-10-16T06:44:45.560545+00:00,2.035000,-0.017860,
2025-10-16T06:44:45.565545+00:00,2.040000,-0.022040,
2025-10-16T06:44:45.570545+00:00,2.045000,-0.043320,
2025-10-16T06:44:45.575545+00:00,2.050000,-0.059660,
2025-10-16T06:44:45.580545+00:00,2.055000,-0.058900,
2025-10-16T06:44:45.585545+00:00,2.060000,-0.052060,
2025-10-16T06:44:45.590545+00:00,2.065000,-0.048260,
2025-10-16T06:44:45.595545+00:00,2.070000,-0.043320,
2025-10-16T06:44:45.600545+00:00,2.075000,-0.031540,
2025-10-16T06:44:45.605545+00:00,2.080000,-0.017100,
2025-10-16T06:44:45.610545+00:00,2.085000,-0.012920,
2025-10-16T06:44:45.615545+00:00,2.090000,-0.026220,
2025-10-16T06:44:45.620545+00:00,2.095000,-0.045980,
2025-10-16T06:44:45.625545+00:00,2.100000,-0.052060,
2025-10-16T06:44:45.630545+00:00,2.105000,-0.039520,
2025-10-16T06:44:45.635545+00:00,2.110000,-0.018240,
2025-10-16T06:44:45.640545+00:00,2.115000,-0.000380,
2025-10-16T06:44:45.645545+00:00,2.120000,0.006080,
2025-10-16T06:44:45.650545+00:00,2.125000,-0.003040,
2025-10-16T06:44:45.655545+00:00,2.130000,-0.019000,
2025-10-16T06:44:45.660545+00:00,2.135000,-0.028880,
2025-10-16T06:44:45.665545+00:00,2.140000,-0.038000,
2025-10-16T06:44:45.670545+00:00,2.145000,-0.054720,
2025-10-16T06:44:45.675545+00:00,2.150000,-0.061560,
2025-10-16T06:44:45.680545+00:00,2.155000,-0.046360,
2025-10-16T06:44:45.685545+00:00,2.160000,-0.028500,
2025-10-16T06:44:45.690545+00:00,2.165000,-0.028500,
2025-10-16T06:44:45.695545+00:00,2.170000,-0.040280,
2025-10-16T06:44:45.700545+00:00,2.175000,-0.045980,
2025-10-16T06:44:45.705545+00:00,2.180000,-0.044080,
2025-10-16T06:44:45.710545+00:00,2.185000,-0.046740,
2025-10-16T06:44:45.715545+00:00,2.190000,-0.053200,
2025-10-16T06:44:45.720545+00:00,2.195000,-0.052440,
2025-10-16T06:44:45.725545+00:00,2.200000,-0.047500,
2025-10-16T06:44:45.730545+00:00,2.205000,-0.047120,
2025-10-16T06:44:45.735545+00:00,2.210000,-0.052060,
2025-10-16T06:44:45.740545+00:00,2.215000,-0.047500,
2025-10-16T06:44:45.745545+00:00,2.220000,-0.034580,
2025-10-16T06:44:45.750545+00:00,2.225000,-0.025840,
2025-10-16T06:44:45.755545+00:00,2.230000,-0.028500,
2025-10-16T06:44:45.760545+00:00,2.235000,-0.032300,
2025-10-16T06:44:45.765545+00:00,2.240000,-0.029260,
2025-10-16T06:44:45.770545+00:00,2.245000,-0.025080,
2025-10-16T06:44:45.775545+00:00,2.250000,-0.028120,
2025-10-16T06:44:45.780545+00:00,2.255000,-0.040660,
2025-10-16T06:44:45.785545+00:00,2.260000,-0.059280,
2025-10-16T06:44:45.790545+00:00,2.265000,-0.070680,
2025-10-16T06:44:45.795545+00:00,2.270000,-0.061940,
2025-10-16T06:44:45.800545+00:00,2.275000,-0.047500,
2025-10-16T06:44:45.805545+00:00,2.280000,-0.049400,
2025-10-16T06:44:45.810545+00:00,2.285000,-0.062700,
2025-10-16T06:44:45.815545+00:00,2.290000,-0.062320,
2025-10-16T06:44:45.820545+00:00,2.295000,-0.039900,
2025-10-16T06:44:45.825545+00:00,2.300000,-0.022800,
2025-10-16T06:44:45.830545+00:00,2.305000,-0.026980,
2025-10-16T06:44:45.835545+00:00,2.310000,-0.042940,
2025-10-16T06:44:45.840545+00:00,2.315000,-0.046740,
2025-10-16T06:44:45.845545+00:00,2.320000,-0.031160,
2025-10-16T06:44:45.850545+00:00,2.325000,-0.020520,
2025-10-16T06:44:45.855545+00:00,2.330000,-0.025840,
2025-10-16T06:44:45.860545+00:00,2.335000,-0.036480,
2025-10-16T06:44:45.865545+00:00,2.340000,-0.036100,
2025-10-16T06:44:45.870545+00:00,2.345000,-0.028120,
2025-10-16T06:44:45.875545+00:00,2.350000,-0.028500,
2025-10-16T06:44:45.880545+00:00,2.355000,-0.037240,
2025-10-16T06:44:45.885545+00:00,2.360000,-0.044080,
2025-10-16T06:44:45.890545+00:00,2.365000,-0.035720,
2025-10-16T06:44:45.895545+00:00,2.370000,-0.023180,
2025-10-16T06:44:45.900545+00:00,2.375000,-0.025460,
2025-10-16T06:44:45.905545+00:00,2.380000,-0.041040,
2025-10-16T06:44:45.910545+00:00,2.385000,-0.048260,
2025-10-16T06:44:45.915545+00:00,2.390000,-0.041800,
2025-10-16T06:44:45.920545+00:00,2.395000,-0.034960,
2025-10-16T06:44:45.925545+00:00,2.400000,-0.029640,
2025-10-16T06:44:45.930545+00:00,2.405000,-0.027360,
2025-10-16T06:44:45.935545+00:00,2.410000,-0.031540,
2025-10-16T06:44:45.940545+00:00,2.415000,-0.042560,
2025-10-16T06:44:45.945545+00:00,2.420000,-0.055100,
2025-10-16T06:44:45.950545+00:00,2.425000,-0.064220,
2025-10-16T06:44:45.955545+00:00,2.430000,-0.068020,
2025-10-16T06:44:45.960545+00:00,2.435000,-0.061180,
2025-10-16T06:44:45.965545+00:00,2.440000,-0.045220,
2025-10-16T06:44:45.970545+00:00,2.445000,-0.037620,
2025-10-16T06:44:45.975545+00:00,2.450000,-0.051300,
2025-10-16T06:44:45.980545+00:00,2.455000,-0.074480,
2025-10-16T06:44:45.985545+00:00,2.460000,-0.076000,
2025-10-16T06:44:45.990545+00:00,2.465000,-0.045220,
2025-10-16T06:44:45.995545+00:00,2.470000,-0.015960,
2025-10-16T06:44:46.000545+00:00,2.475000,-0.020900,
2025-10-16T06:44:46.005545+00:00,2.480000,-0.046740,
2025-10-16T06:44:46.010545+00:00,2.485000,-0.054720,
2025-10-16T06:44:46.015545+00:00,2.490000,-0.030020,
2025-10-16T06:44:46.020545+00:00,2.495000,-0.003040,
2025-10-16T06:44:46.025545+00:00,2.500000,-0.003800,
2025-10-16T06:44:46.030545+00:00,2.505000,-0.025840,
2025-10-16T06:44:46.035545+00:00,2.510000,-0.043700,
2025-10-16T06:44:46.040545+00:00,2.515000,-0.048260,
2025-10-16T06:44:46.045545+00:00,2.520000,-0.042560,
2025-10-16T06:44:46.050545+00:00,2.525000,-0.029640,
2025-10-16T06:44:46.055545+00:00,2.530000,-0.019380,
2025-10-16T06:44:46.060545+00:00,2.535000,-0.023940,
2025-10-16T06:44:46.065545+00:00,2.540000,-0.043320,
2025-10-16T06:44:46.070545+00:00,2.545000,-0.063080,
2025-10-16T06:44:46.075545+00:00,2.550000,-0.062700,
2025-10-16T06:44:46.080545+00:00,2.555000,-0.048640,
2025-10-16T06:44:46.085545+00:00,2.560000,-0.029640,
2025-10-16T06:44:46.090545+00:00,2.565000,-0.018240,
2025-10-16T06:44:46.095545+00:00,2.570000,-0.019000,
2025-10-16T06:44:46.100545+00:00,2.575000,-0.034960,
2025-10-16T06:44:46.105545+00:00,2.580000,-0.058900,
2025-10-16T06:44:46.110545+00:00,2.585000,-0.058900,
2025-10-16T06:44:46.115545+00:00,2.590000,-0.033060,
2025-10-16T06:44:46.120545+00:00,2.595000,-0.016340,
2025-10-16T06:44:46.125545+00:00,2.600000,-0.030020,
2025-10-16T06:44:46.130545+00:00,2.605000,-0.050540,
2025-10-16T06:44:46.135545+00:00,2.610000,-0.055480,
2025-10-16T06:44:46.140545+00:00,2.615000,-0.049020,
2025-10-16T06:44:46.145545+00:00,2.620000,-0.043320,
2025-10-16T06:44:46.150545+00:00,2.625000,-0.049020,
2025-10-16T06:44:46.155545+00:00,2.630000,-0.057000,
2025-10-16T06:44:46.160545+00:00,2.635000,-0.058900,
2025-10-16T06:44:46.165545+00:00,2.640000,-0.052440,
2025-10-16T06:44:46.170545+00:00,2.645000,-0.040280,
2025-10-16T06:44:46.175545+00:00,2.650000,-0.026980,
2025-10-16T06:44:46.180545+00:00,2.655000,-0.024320,
2025-10-16T06:44:46.185545+00:00,2.660000,-0.039140,
2025-10-16T06:44:46.190545+00:00,2.665000,-0.050920,
2025-10-16T06:44:46.195545+00:00,2.670000,-0.045980,
2025-10-16T06:44:46.200545+00:00,2.675000,-0.042560,
2025-10-16T06:44:46.205545+00:00,2.680000,-0.050540,
2025-10-16T06:44:46.210545+00:00,2.685000,-0.061940,
2025-10-16T06:44:46.215545+00:00,2.690000,-0.061180,
2025-10-16T06:44:46.220545+00:00,2.695000,-0.054340,
2025-10-16T06:44:46.225545+00:00,2.700000,-0.055480,
2025-10-16T06:44:46.230545+00:00,2.705000,-0.061180,
2025-10-16T06:44:46.235545+00:00,2.710000,-0.055100,
2025-10-16T06:44:46.240545+00:00,2.715000,-0.034200,
2025-10-16T06:44:46.245545+00:00,2.720000,-0.018620,
2025-10-16T06:44:46.250545+00:00,2.725000,-0.027360,
2025-10-16T06:44:46.255545+00:00,2.730000,-0.047120,
2025-10-16T06:44:46.260545+00:00,2.735000,-0.068020,
2025-10-16T06:44:46.265545+00:00,2.740000,-0.083600,
2025-10-16T06:44:46.270545+00:00,2.745000,-0.085120,
2025-10-16T06:44:46.275545+00:00,2.750000,-0.074860,
2025-10-16T06:44:46.280545+00:00,2.755000,-0.064600,
2025-10-16T06:44:46.285545+00:00,2.760000,-0.066880,
2025-10-16T06:44:46.290545+00:00,2.765000,-0.076000,
2025-10-16T06:44:46.295545+00:00,2.770000,-0.068780,
2025-10-16T06:44:46.300545+00:00,2.775000,-0.042940,
2025-10-16T06:44:46.305545+00:00,2.780000,-0.029260,
2025-10-16T06:44:46.310545+00:00,2.785000,-0.041800,
2025-10-16T06:44:46.315545+00:00,2.790000,-0.059280,
2025-10-16T06:44:46.320545+00:00,2.795000,-0.050920,
2025-10-16T06:44:46.325545+00:00,2.800000,-0.030400,
2025-10-16T06:44:46.330545+00:00,2.805000,-0.025840,
2025-10-16T06:44:46.335545+00:00,2.810000,-0.044840,
2025-10-16T06:44:46.340545+00:00,2.815000,-0.066500,
2025-10-16T06:44:46.345545+00:00,2.820000,-0.069920,
2025-10-16T06:44:46.350545+00:00,2.825000,-0.058900,
2025-10-16T06:44:46.355545+00:00,2.830000,-0.049400,
2025-10-16T06:44:46.360545+00:00,2.835000,-0.045600,
2025-10-16T06:44:46.365545+00:00,2.840000,-0.053960,
2025-10-16T06:44:46.370545+00:00,2.845000,-0.061560,
2025-10-16T06:44:46.375545+00:00,2.850000,-0.057000,
2025-10-16T06:44:46.380545+00:00,2.855000,-0.044460,
2025-10-16T06:44:46.385545+00:00,2.860000,-0.042560,
2025-10-16T06:44:46.390545+00:00,2.865000,-0.054340,
2025-10-16T06:44:46.395545+00:00,2.870000,-0.060800,
2025-10-16T06:44:46.400545+00:00,2.875000,-0.052060,
2025-10-16T06:44:46.405545+00:00,2.880000,-0.040660,
2025-10-16T06:44:46.410545+00:00,2.885000,-0.042180,
2025-10-16T06:44:46.415545+00:00,2.890000,-0.045980,
2025-10-16T06:44:46.420545+00:00,2.895000,-0.039520,
2025-10-16T06:44:46.425545+00:00,2.900000,-0.034200,
2025-10-16T06:44:46.430545+00:00,2.905000,-0.038000,
2025-10-16T06:44:46.435545+00:00,2.910000,-0.046740,
2025-10-16T06:44:46.440545+00:00,2.915000,-0.044840,
2025-10-16T06:44:46.445545+00:00,2.920000,-0.033820,
2025-10-16T06:44:46.450545+00:00,2.925000,-0.024700,
2025-10-16T06:44:46.455545+00:00,2.930000,-0.025460,
2025-10-16T06:44:46.460545+00:00,2.935000,-0.036100,
2025-10-16T06:44:46.465545+00:00,2.940000,-0.044460,
2025-10-16T06:44:46.470545+00:00,2.945000,-0.045600,
2025-10-16T06:44:46.475545+00:00,2.950000,-0.039140,
2025-10-16T06:44:46.480545+00:00,2.955000,-0.034200,
2025-10-16T06:44:46.485545+00:00,2.960000,-0.035720,
2025-10-16T06:44:46.490545+00:00,2.965000,-0.042180,
2025-10-16T06:44:46.495545+00:00,2.970000,-0.038380,
2025-10-16T06:44:46.500545+00:00,2.975000,-0.031160,
2025-10-16T06:44:46.505545+00:00,2.980000,-0.036100,
2025-10-16T06:44:46.510545+00:00,2.985000,-0.046360,
2025-10-16T06:44:46.515545+00:00,2.990000,-0.040660,
2025-10-16T06:44:46.520545+00:00,2.995000,-0.023560,
2025-10-16T06:44:46.525545+00:00,3.000000,-0.015200,
2025-10-16T06:44:46.530545+00:00,3.005000,-0.022800,
2025-10-16T06:44:46.535545+00:00,3.010000,-0.036860,
2025-10-16T06:44:46.540545+00:00,3.015000,-0.049400,
2025-10-16T06:44:46.545545+00:00,3.020000,-0.050160,
2025-10-16T06:44:46.550545+00:00,3.025000,-0.045220,
2025-10-16T06:44:46.555545+00:00,3.030000,-0.044840,
2025-10-16T06:44:46.560545+00:00,3.035000,-0.045600,
2025-10-16T06:44:46.565545+00:00,3.040000,-0.043320,
2025-10-16T06:44:46.570545+00:00,3.045000,-0.039140,
2025-10-16T06:44:46.575545+00:00,3.050000,-0.030780,
2025-10-16T06:44:46.580545+00:00,3.055000,-0.021660,
2025-10-16T06:44:46.585545+00:00,3.060000,-0.017100,
2025-10-16T06:44:46.590545+00:00,3.065000,-0.021660,
2025-10-16T06:44:46.595545+00:00,3.070000,-0.032300,
2025-10-16T06:44:46.600545+00:00,3.075000,-0.045600,
2025-10-16T06:44:46.605545+00:00,3.080000,-0.052060,
2025-10-16T06:44:46.610545+00:00,3.085000,-0.047880,
2025-10-16T06:44:46.615545+00:00,3.090000,-0.042940,
2025-10-16T06:44:46.620545+00:00,3.095000,-0.044460,
2025-10-16T06:44:46.625545+00:00,3.100000,-0.047120,
2025-10-16T06:44:46.630545+00:00,3.105000,-0.041800,
2025-10-16T06:44:46.635545+00:00,3.110000,-0.036100,
2025-10-16T06:44:46.640545+00:00,3.115000,-0.035720,
2025-10-16T06:44:46.645545+00:00,3.120000,-0.039520,
2025-10-16T06:44:46.650545+00:00,3.125000,-0.044460,
2025-10-16T06:44:46.655545+00:00,3.130000,-0.042560,
2025-10-16T06:44:46.660545+00:00,3.135000,-0.028120,
2025-10-16T06:44:46.665545+00:00,3.140000,-0.009120,
2025-10-16T06:44:46.670545+00:00,3.145000,-0.005700,
2025-10-16T06:44:46.675545+00:00,3.150000,-0.023180,
2025-10-16T06:44:46.680545+00:00,3.155000,-0.045600,
2025-10-16T06:44:46.685545+00:00,3.160000,-0.052060,
2025-10-16T06:44:46.690545+00:00,3.165000,-0.040660,
2025-10-16T06:44:46.695545+00:00,3.170000,-0.032680,
2025-10-16T06:44:46.700545+00:00,3.175000,-0.042560,
2025-10-16T06:44:46.705545+00:00,3.180000,-0.055480,
2025-10-16T06:44:46.710545+00:00,3.185000,-0.049400,
2025-10-16T06:44:46.715545+00:00,3.190000,-0.030020,
2025-10-16T06:44:46.720545+00:00,3.195000,-0.021280,
2025-10-16T06:44:46.725545+00:00,3.200000,-0.026220,
2025-10-16T06:44:46.730545+00:00,3.205000,-0.029260,
2025-10-16T06:44:46.735545+00:00,3.210000,-0.019760,
2025-10-16T06:44:46.740545+00:00,3.215000,-0.011020,
2025-10-16T06:44:46.745545+00:00,3.220000,-0.017480,
2025-10-16T06:44:46.750545+00:00,3.225000,-0.035340,
2025-10-16T06:44:46.755545+00:00,3.230000,-0.050160,
2025-10-16T06:44:46.760545+00:00,3.235000,-0.050540,
2025-10-16T06:44:46.765545+00:00,3.240000,-0.043320,
2025-10-16T06:44:46.770545+00:00,3.245000,-0.043700,
2025-10-16T06:44:46.775545+00:00,3.250000,-0.051680,
2025-10-16T06:44:46.780545+00:00,3.255000,-0.055480,
2025-10-16T06:44:46.785545+00:00,3.260000,-0.045600,
2025-10-16T06:44:46.790545+00:00,3.265000,-0.033820,
2025-10-16T06:44:46.795545+00:00,3.270000,-0.034200,
2025-10-16T06:44:46.800545+00:00,3.275000,-0.034200,
2025-10-16T06:44:46.805545+00:00,3.280000,-0.020900,
2025-10-16T06:44:46.810545+00:00,3.285000,-0.000380,
2025-10-16T06:44:46.815545+00:00,3.290000,-0.000380,
2025-10-16T06:44:46.820545+00:00,3.295000,-0.026980,
2025-10-16T06:44:46.825545+00:00,3.300000,-0.052440,
2025-10-16T06:44:46.830545+00:00,3.305000,-0.048260,
2025-10-16T06:44:46.835545+00:00,3.310000,-0.024320,
2025-10-16T06:44:46.840545+00:00,3.315000,-0.008360,
2025-10-16T06:44:46.845545+00:00,3.320000,-0.009880,
2025-10-16T06:44:46.850545+00:00,3.325000,-0.022420,
2025-10-16T06:44:46.855545+00:00,3.330000,-0.039140,
2025-10-16T06:44:46.860545+00:00,3.335000,-0.051680,
2025-10-16T06:44:46.865545+00:00,3.340000,-0.052060,
2025-10-16T06:44:46.870545+00:00,3.345000,-0.039520,
2025-10-16T06:44:46.875545+00:00,3.350000,-0.028120,
2025-10-16T06:44:46.880545+00:00,3.355000,-0.026220,
2025-10-16T06:44:46.885545+00:00,3.360000,-0.034200,
2025-10-16T06:44:46.890545+00:00,3.365000,-0.044840,
2025-10-16T06:44:46.895545+00:00,3.370000,-0.055860,
2025-10-16T06:44:46.900545+00:00,3.375000,-0.053580,
2025-10-16T06:44:46.905545+00:00,3.380000,-0.034580,
2025-10-16T06:44:46.910545+00:00,3.385000,-0.016340,
2025-10-16T06:44:46.915545+00:00,3.390000,-0.017860,
2025-10-16T06:44:46.920545+00:00,3.395000,-0.032300,
2025-10-16T06:44:46.925545+00:00,3.400000,-0.039900,
2025-10-16T06:44:46.930545+00:00,3.405000,-0.026220,
2025-10-16T06:44:46.935545+00:00,3.410000,-0.018620,
2025-10-16T06:44:46.940545+00:00,3.415000,-0.034200,
2025-10-16T06:44:46.945545+00:00,3.420000,-0.055480,
2025-10-16T06:44:46.950545+00:00,3.425000,-0.061180,
2025-10-16T06:44:46.955545+00:00,3.430000,-0.058900,
2025-10-16T06:44:46.960545+00:00,3.435000,-0.055100,
2025-10-16T06:44:46.965545+00:00,3.440000,-0.044080,
2025-10-16T06:44:46.970545+00:00,3.445000,-0.025080,
2025-10-16T06:44:46.975545+00:00,3.450000,-0.010640,
2025-10-16T06:44:46.980545+00:00,3.455000,-0.008360,
2025-10-16T06:44:46.985545+00:00,3.460000,-0.014820,
2025-10-16T06:44:46.990545+00:00,3.465000,-0.022800,
2025-10-16T06:44:46.995545+00:00,3.470000,-0.028120,
2025-10-16T06:44:47.000545+00:00,3.475000,-0.033440,
2025-10-16T06:44:47.005545+00:00,3.480000,-0.031920,
2025-10-16T06:44:47.010545+00:00,3.485000,-0.026980,
2025-10-16T06:44:47.015545+00:00,3.490000,-0.035340,
2025-10-16T06:44:47.020545+00:00,3.495000,-0.054340,
2025-10-16T06:44:47.025545+00:00,3.500000,-0.059660,
2025-10-16T06:44:47.030545+00:00,3.505000,-0.040660,
2025-10-16T06:44:47.035545+00:00,3.510000,-0.017480,
2025-10-16T06:44:47.040545+00:00,3.515000,-0.011020,
2025-10-16T06:44:47.045545+00:00,3.520000,-0.015580,
2025-10-16T06:44:47.050545+00:00,3.525000,-0.017860,
2025-10-16T06:44:47.055545+00:00,3.530000,-0.015580,
2025-10-16T06:44:47.060545+00:00,3.535000,-0.016720,
2025-10-16T06:44:47.065545+00:00,3.540000,-0.020520,
2025-10-16T06:44:47.070545+00:00,3.545000,-0.022040,
2025-10-16T06:44:47.075545+00:00,3.550000,-0.022040,
2025-10-16T06:44:47.080545+00:00,3.555000,-0.035340,
2025-10-16T06:44:47.085545+00:00,3.560000,-0.057760,
2025-10-16T06:44:47.090545+00:00,3.565000,-0.064980,
2025-10-16T06:44:47.095545+00:00,3.570000,-0.044080,
2025-10-16T06:44:47.100545+00:00,3.575000,-0.007980,
2025-10-16T06:44:47.105545+00:00,3.580000,0.011780,
2025-10-16T06:44:47.110545+00:00,3.585000,0.002660,
2025-10-16T06:44:47.115545+00:00,3.590000,-0.022040,
2025-10-16T06:44:47.120545+00:00,3.595000,-0.035720,
2025-10-16T06:44:47.125545+00:00,3.600000,-0.036860,
2025-10-16T06:44:47.130545+00:00,3.605000,-0.035340,
2025-10-16T06:44:47.135545+00:00,3.610000,-0.036100,
2025-10-16T06:44:47.140545+00:00,3.615000,-0.035720,
2025-10-16T06:44:47.145545+00:00,3.620000,-0.034960,
2025-10-16T06:44:47.150545+00:00,3.625000,-0.035720,
2025-10-16T06:44:47.155545+00:00,3.630000,-0.034580,
2025-10-16T06:44:47.160545+00:00,3.635000,-0.034200,
2025-10-16T06:44:47.165545+00:00,3.640000,-0.034960,
2025-10-16T06:44:47.170545+00:00,3.645000,-0.037240,
2025-10-16T06:44:47.175545+00:00,3.650000,-0.038000,
2025-10-16T06:44:47.180545+00:00,3.655000,-0.038380,
2025-10-16T06:44:47.185545+00:00,3.660000,-0.041800,
2025-10-16T06:44:47.190545+00:00,3.665000,-0.042180,
2025-10-16T06:44:47.195545+00:00,3.670000,-0.030780,
2025-10-16T06:44:47.200545+00:00,3.675000,-0.016720,
2025-10-16T06:44:47.205545+00:00,3.680000,-0.028880,
2025-10-16T06:44:47.210545+00:00,3.685000,-0.061560,
2025-10-16T06:44:47.215545+00:00,3.690000,-0.076380,
2025-10-16T06:44:47.220545+00:00,3.695000,-0.058900,
2025-10-16T06:44:47.225545+00:00,3.700000,-0.035340,
2025-10-16T06:44:47.230545+00:00,3.705000,-0.028500,
2025-10-16T06:44:47.235545+00:00,3.710000,-0.028120,
2025-10-16T06:44:47.240545+00:00,3.715000,-0.018620,
2025-10-16T06:44:47.245545+00:00,3.720000,-0.009880,
2025-10-16T06:44:47.250545+00:00,3.725000,-0.020520,
2025-10-16T06:44:47.255545+00:00,3.730000,-0.040280,
2025-10-16T06:44:47.260545+00:00,3.735000,-0.054720,
2025-10-16T06:44:47.265545+00:00,3.740000,-0.065740,
2025-10-16T06:44:47.270545+00:00,3.745000,-0.071440,
2025-10-16T06:44:47.275545+00:00,3.750000,-0.059280,
2025-10-16T06:44:47.280545+00:00,3.755000,-0.031160,
2025-10-16T06:44:47.285545+00:00,3.760000,-0.013300,
2025-10-16T06:44:47.290545+00:00,3.765000,-0.026980,
2025-10-16T06:44:47.295545+00:00,3.770000,-0.052820,
2025-10-16T06:44:47.300545+00:00,3.775000,-0.063460,
2025-10-16T06:44:47.305545+00:00,3.780000,-0.056620,
2025-10-16T06:44:47.310545+00:00,3.785000,-0.045220,
2025-10-16T06:44:47.315545+00:00,3.790000,-0.038760,
2025-10-16T06:44:47.320545+00:00,3.795000,-0.036100,
2025-10-16T06:44:47.325545+00:00,3.800000,-0.034960,
2025-10-16T06:44:47.330545+00:00,3.805000,-0.034200,
2025-10-16T06:44:47.335545+00:00,3.810000,-0.038760,
2025-10-16T06:44:47.340545+00:00,3.815000,-0.042560,
2025-10-16T06:44:47.345545+00:00,3.820000,-0.043320,
2025-10-16T06:44:47.350545+00:00,3.825000,-0.038760,
2025-10-16T06:44:47.355545+00:00,3.830000,-0.037620,
2025-10-16T06:44:47.360545+00:00,3.835000,-0.041420,
2025-10-16T06:44:47.365545+00:00,3.840000,-0.042940,
2025-10-16T06:44:47.370545+00:00,3.845000,-0.036480,
2025-10-16T06:44:47.375545+00:00,3.850000,-0.027740,
2025-10-16T06:44:47.380545+00:00,3.855000,-0.023940,
2025-10-16T06:44:47.385545+00:00,3.860000,-0.026980,
2025-10-16T06:44:47.390545+00:00,3.865000,-0.023560,
2025-10-16T06:44:47.395545+00:00,3.870000,-0.019380,
2025-10-16T06:44:47.400545+00:00,3.875000,-0.026220,
2025-10-16T06:44:47.405545+00:00,3.880000,-0.041420,
2025-10-16T06:44:47.410545+00:00,3.885000,-0.050540,
2025-10-16T06:44:47.415545+00:00,3.890000,-0.047500,
2025-10-16T06:44:47.420545+00:00,3.895000,-0.039140,
2025-10-16T06:44:47.425545+00:00,3.900000,-0.038380,
2025-10-16T06:44:47.430545+00:00,3.905000,-0.042940,
2025-10-16T06:44:47.435545+00:00,3.910000,-0.048640,
2025-10-16T06:44:47.440545+00:00,3.915000,-0.052060,
2025-10-16T06:44:47.445545+00:00,3.920000,-0.049780,
2025-10-16T06:44:47.450545+00:00,3.925000,-0.051300,
2025-10-16T06:44:47.455545+00:00,3.930000,-0.060800,
2025-10-16T06:44:47.460545+00:00,3.935000,-0.061560,
2025-10-16T06:44:47.465545+00:00,3.940000,-0.046360,
2025-10-16T06:44:47.470545+00:00,3.945000,-0.030400,
2025-10-16T06:44:47.475545+00:00,3.950000,-0.032300,
2025-10-16T06:44:47.480545+00:00,3.955000,-0.038380,
2025-10-16T06:44:47.485545+00:00,3.960000,-0.034200,
2025-10-16T06:44:47.490545+00:00,3.965000,-0.026600,
2025-10-16T06:44:47.495545+00:00,3.970000,-0.030020,
2025-10-16T06:44:47.500545+00:00,3.975000,-0.038760,
2025-10-16T06:44:47.505545+00:00,3.980000,-0.036480,
2025-10-16T06:44:47.510545+00:00,3.985000,-0.031160,
2025-10-16T06:44:47.515545+00:00,3.990000,-0.036480,
2025-10-16T06:44:47.520545+00:00,3.995000,-0.044840,
2025-10-16T06:44:47.525545+00:00,4.000000,-0.039140,
2025-10-16T06:44:47.530545+00:00,4.005000,-0.028880,
2025-10-16T06:44:47.535545+00:00,4.010000,-0.033440,
2025-10-16T06:44:47.540545+00:00,4.015000,-0.052440,
2025-10-16T06:44:47.545545+00:00,4.020000,-0.054340,
2025-10-16T06:44:47.550545+00:00,4.025000,-0.039140,
2025-10-16T06:44:47.555545+00:00,4.030000,-0.030400,
2025-10-16T06:44:47.560545+00:00,4.035000,-0.038380,
2025-10-16T06:44:47.565545+00:00,4.040000,-0.046740,
2025-10-16T06:44:47.570545+00:00,4.045000,-0.047500,
2025-10-16T06:44:47.575545+00:00,4.050000,-0.045220,
2025-10-16T06:44:47.580545+00:00,4.055000,-0.046740,
2025-10-16T06:44:47.585545+00:00,4.060000,-0.049020,
2025-10-16T06:44:47.590545+00:00,4.065000,-0.047500,
2025-10-16T06:44:47.595545+00:00,4.070000,-0.046740,
2025-10-16T06:44:47.600545+00:00,4.075000,-0.048640,
2025-10-16T06:44:47.605545+00:00,4.080000,-0.052060,
2025-10-16T06:44:47.610545+00:00,4.085000,-0.045600,
2025-10-16T06:44:47.615545+00:00,4.090000,-0.037620,
2025-10-16T06:44:47.620545+00:00,4.095000,-0.040660,
2025-10-16T06:44:47.625545+00:00,4.100000,-0.054720,
2025-10-16T06:44:47.630545+00:00,4.105000,-0.071060,
2025-10-16T06:44:47.635545+00:00,4.110000,-0.076000,
2025-10-16T06:44:47.640545+00:00,4.115000,-0.068780,
2025-10-16T06:44:47.645545+00:00,4.120000,-0.050160,
2025-10-16T06:44:47.650545+00:00,4.125000,-0.030780,
2025-10-16T06:44:47.655545+00:00,4.130000,-0.021280,
2025-10-16T06:44:47.660545+00:00,4.135000,-0.025080,
2025-10-16T06:44:47.665545+00:00,4.140000,-0.035340,
2025-10-16T06:44:47.670545+00:00,4.145000,-0.038380,
2025-10-16T06:44:47.675545+00:00,4.150000,-0.021660,
2025-10-16T06:44:47.680545+00:00,4.155000,-0.000760,
2025-10-16T06:44:47.685545+00:00,4.160000,-0.000380,
2025-10-16T06:44:47.690545+00:00,4.165000,-0.024320,
2025-10-16T06:44:47.695545+00:00,4.170000,-0.043320,
2025-10-16T06:44:47.700545+00:00,4.175000,-0.041040,
2025-10-16T06:44:47.705545+00:00,4.180000,-0.030020,
2025-10-16T06:44:47.710545+00:00,4.185000,-0.028120,
2025-10-16T06:44:47.715545+00:00,4.190000,-0.036480,
2025-10-16T06:44:47.720545+00:00,4.195000,-0.038760,
2025-10-16T06:44:47.725545+00:00,4.200000,-0.028500,
2025-10-16T06:44:47.730545+00:00,4.205000,-0.022800,
2025-10-16T06:44:47.735545+00:00,4.210000,-0.035340,
2025-10-16T06:44:47.740545+00:00,4.215000,-0.056620,
2025-10-16T06:44:47.745545+00:00,4.220000,-0.064980,
2025-10-16T06:44:47.750545+00:00,4.225000,-0.047120,
2025-10-16T06:44:47.755545+00:00,4.230000,-0.025840,
2025-10-16T06:44:47.760545+00:00,4.235000,-0.022800,
2025-10-16T06:44:47.765545+00:00,4.240000,-0.031920,
2025-10-16T06:44:47.770545+00:00,4.245000,-0.031160,
2025-10-16T06:44:47.775545+00:00,4.250000,-0.026980,
2025-10-16T06:44:47.780545+00:00,4.255000,-0.034960,
2025-10-16T06:44:47.785545+00:00,4.260000,-0.056620,
2025-10-16T06:44:47.790545+00:00,4.265000,-0.063080,
2025-10-16T06:44:47.795545+00:00,4.270000,-0.043320,
2025-10-16T06:44:47.800545+00:00,4.275000,-0.030020,
2025-10-16T06:44:47.805545+00:00,4.280000,-0.044840,
2025-10-16T06:44:47.810545+00:00,4.285000,-0.057760,
2025-10-16T06:44:47.815545+00:00,4.290000,-0.044460,
2025-10-16T06:44:47.820545+00:00,4.295000,-0.025840,
2025-10-16T06:44:47.825545+00:00,4.300000,-0.033060,
2025-10-16T06:44:47.830545+00:00,4.305000,-0.050160,
2025-10-16T06:44:47.835545+00:00,4.310000,-0.052440,
2025-10-16T06:44:47.840545+00:00,4.315000,-0.039520,
2025-10-16T06:44:47.845545+00:00,4.320000,-0.035720,
2025-10-16T06:44:47.850545+00:00,4.325000,-0.046360,
2025-10-16T06:44:47.855545+00:00,4.330000,-0.058900,
2025-10-16T06:44:47.860545+00:00,4.335000,-0.057380,
2025-10-16T06:44:47.865545+00:00,4.340000,-0.049020,
2025-10-16T06:44:47.870545+00:00,4.345000,-0.042940,
2025-10-16T06:44:47.875545+00:00,4.350000,-0.033060,
2025-10-16T06:44:47.880545+00:00,4.355000,-0.023180,
2025-10-16T06:44:47.885545+00:00,4.360000,-0.028500,
2025-10-16T06:44:47.890545+00:00,4.365000,-0.042180,
2025-10-16T06:44:47.895545+00:00,4.370000,-0.047880,
2025-10-16T06:44:47.900545+00:00,4.375000,-0.045220,
2025-10-16T06:44:47.905545+00:00,4.380000,-0.047880,
2025-10-16T06:44:47.910545+00:00,4.385000,-0.057760,
2025-10-16T06:44:47.915545+00:00,4.390000,-0.055480,
2025-10-16T06:44:47.920545+00:00,4.395000,-0.036480,
2025-10-16T06:44:47.925545+00:00,4.400000,-0.016720,
2025-10-16T06:44:47.930545+00:00,4.405000,-0.019000,
2025-10-16T06:44:47.935545+00:00,4.410000,-0.039140,
2025-10-16T06:44:47.940545+00:00,4.415000,-0.054340,
2025-10-16T06:44:47.945545+00:00,4.420000,-0.047880,
2025-10-16T06:44:47.950545+00:00,4.425000,-0.037240,
2025-10-16T06:44:47.955545+00:00,4.430000,-0.043700,
2025-10-16T06:44:47.960545+00:00,4.435000,-0.059280,
2025-10-16T06:44:47.965545+00:00,4.440000,-0.059660,
2025-10-16T06:44:47.970545+00:00,4.445000,-0.039520,
2025-10-16T06:44:47.975545+00:00,4.450000,-0.017480,
2025-10-16T06:44:47.980545+00:00,4.455000,-0.019760,
2025-10-16T06:44:47.985545+00:00,4.460000,-0.037240,
2025-10-16T06:44:47.990545+00:00,4.465000,-0.046740,
2025-10-16T06:44:47.995545+00:00,4.470000,-0.036100,
2025-10-16T06:44:48.000545+00:00,4.475000,-0.023560,
2025-10-16T06:44:48.005545+00:00,4.480000,-0.020900,
2025-10-16T06:44:48.010545+00:00,4.485000,-0.026600,
2025-10-16T06:44:48.015545+00:00,4.490000,-0.042180,
2025-10-16T06:44:48.020545+00:00,4.495000,-0.065740,
2025-10-16T06:44:48.025545+00:00,4.500000,-0.082460,
2025-10-16T06:44:48.030545+00:00,4.505000,-0.074480,
2025-10-16T06:44:48.035545+00:00,4.510000,-0.056240,
2025-10-16T06:44:48.040545+00:00,4.515000,-0.047120,
2025-10-16T06:44:48.045545+00:00,4.520000,-0.048260,
2025-10-16T06:44:48.050545+00:00,4.525000,-0.050160,
2025-10-16T06:44:48.055545+00:00,4.530000,-0.047500,
2025-10-16T06:44:48.060545+00:00,4.535000,-0.044080,
2025-10-16T06:44:48.065545+00:00,4.540000,-0.039140,
2025-10-16T06:44:48.070545+00:00,4.545000,-0.036100,
2025-10-16T06:44:48.075545+00:00,4.550000,-0.037240,
2025-10-16T06:44:48.080545+00:00,4.555000,-0.039900,
2025-10-16T06:44:48.085545+00:00,4.560000,-0.042560,
2025-10-16T06:44:48.090545+00:00,4.565000,-0.041420,
2025-10-16T06:44:48.095545+00:00,4.570000,-0.036860,
2025-10-16T06:44:48.100545+00:00,4.575000,-0.035340,
2025-10-16T06:44:48.105545+00:00,4.580000,-0.039140,
2025-10-16T06:44:48.110545+00:00,4.585000,-0.036480,
2025-10-16T06:44:48.115545+00:00,4.590000,-0.026980,
2025-10-16T06:44:48.120545+00:00,4.595000,-0.022800,
2025-10-16T06:44:48.125545+00:00,4.600000,-0.030020,
2025-10-16T06:44:48.130545+00:00,4.605000,-0.040280,
2025-10-16T06:44:48.135545+00:00,4.610000,-0.042180,
2025-10-16T06:44:48.140545+00:00,4.615000,-0.041420,
2025-10-16T06:44:48.145545+00:00,4.620000,-0.046360,
2025-10-16T06:44:48.150545+00:00,4.625000,-0.052060,
2025-10-16T06:44:48.155545+00:00,4.630000,-0.046740,
2025-10-16T06:44:48.160545+00:00,4.635000,-0.030400,
2025-10-16T06:44:48.165545+00:00,4.640000,-0.016340,
2025-10-16T06:44:48.170545+00:00,4.645000,-0.015580,
2025-10-16T06:44:48.175545+00:00,4.650000,-0.021660,
2025-10-16T06:44:48.180545+00:00,4.655000,-0.033060,
2025-10-16T06:44:48.185545+00:00,4.660000,-0.045220,
2025-10-16T06:44:48.190545+00:00,4.665000,-0.058520,
2025-10-16T06:44:48.195545+00:00,4.670000,-0.065360,
2025-10-16T06:44:48.200545+00:00,4.675000,-0.061560,
2025-10-16T06:44:48.205545+00:00,4.680000,-0.050540,
2025-10-16T06:44:48.210545+00:00,4.685000,-0.042560,
2025-10-16T06:44:48.215545+00:00,4.690000,-0.050920,
2025-10-16T06:44:48.220545+00:00,4.695000,-0.065740,
2025-10-16T06:44:48.225545+00:00,4.700000,-0.065360,
2025-10-16T06:44:48.230545+00:00,4.705000,-0.048640,
2025-10-16T06:44:48.235545+00:00,4.710000,-0.042940,
2025-10-16T06:44:48.240545+00:00,4.715000,-0.052440,
2025-10-16T06:44:48.245545+00:00,4.720000,-0.058520,
2025-10-16T06:44:48.250545+00:00,4.725000,-0.050920,
2025-10-16T06:44:48.255545+00:00,4.730000,-0.044080,
2025-10-16T06:44:48.260545+00:00,4.735000,-0.042180,
2025-10-16T06:44:48.265545+00:00,4.740000,-0.033060,
2025-10-16T06:44:48.270545+00:00,4.745000,-0.012540,
2025-10-16T06:44:48.275545+00:00,4.750000,-0.009500,
2025-10-16T06:44:48.280545+00:00,4.755000,-0.040660,
2025-10-16T06:44:48.285545+00:00,4.760000,-0.081700,
2025-10-16T06:44:48.290545+00:00,4.765000,-0.090440,
2025-10-16T06:44:48.295545+00:00,4.770000,-0.059660,
2025-10-16T06:44:48.300545+00:00,4.775000,-0.022800,
2025-10-16T06:44:48.305545+00:00,4.780000,-0.012920,
2025-10-16T06:44:48.310545+00:00,4.785000,-0.019380,
2025-10-16T06:44:48.315545+00:00,4.790000,-0.022800,
2025-10-16T06:44:48.320545+00:00,4.795000,-0.022420,
2025-10-16T06:44:48.325545+00:00,4.800000,-0.032680,
2025-10-16T06:44:48.330545+00:00,4.805000,-0.047500,
2025-10-16T06:44:48.335545+00:00,4.810000,-0.057000,
2025-10-16T06:44:48.340545+00:00,4.815000,-0.061940,
2025-10-16T06:44:48.345545+00:00,4.820000,-0.068400,
2025-10-16T06:44:48.350545+00:00,4.825000,-0.073340,
2025-10-16T06:44:48.355545+00:00,4.830000,-0.069540,
2025-10-16T06:44:48.360545+00:00,4.835000,-0.057380,
2025-10-16T06:44:48.365545+00:00,4.840000,-0.049020,
2025-10-16T06:44:48.370545+00:00,4.845000,-0.041420,
2025-10-16T06:44:48.375545+00:00,4.850000,-0.030400,
2025-10-16T06:44:48.380545+00:00,4.855000,-0.012160,
2025-10-16T06:44:48.385545+00:00,4.860000,-0.007980,
2025-10-16T06:44:48.390545+00:00,4.865000,-0.019760,
2025-10-16T06:44:48.395545+00:00,4.870000,-0.037240,
2025-10-16T06:44:48.400545+00:00,4.875000,-0.050160,
2025-10-16T06:44:48.405545+00:00,4.880000,-0.052060,
2025-10-16T06:44:48.410545+00:00,4.885000,-0.044840,
2025-10-16T06:44:48.415545+00:00,4.890000,-0.038380,
2025-10-16T06:44:48.420545+00:00,4.895000,-0.045220,
2025-10-16T06:44:48.425545+00:00,4.900000,-0.057380,
2025-10-16T06:44:48.430545+00:00,4.905000,-0.059660,
2025-10-16T06:44:48.435545+00:00,4.910000,-0.049780,
2025-10-16T06:44:48.440545+00:00,4.915000,-0.033820,
2025-10-16T06:44:48.445545+00:00,4.920000,-0.022420,
2025-10-16T06:44:48.450545+00:00,4.925000,-0.029640,
2025-10-16T06:44:48.455545+00:00,4.930000,-0.048640,
2025-10-16T06:44:48.460545+00:00,4.935000,-0.060040,
2025-10-16T06:44:48.465545+00:00,4.940000,-0.047500,
2025-10-16T06:44:48.470545+00:00,4.945000,-0.031160,
2025-10-16T06:44:48.475545+00:00,4.950000,-0.036480,
2025-10-16T06:44:48.480545+00:00,4.955000,-0.060800,
2025-10-16T06:44:48.485545+00:00,4.960000,-0.073340,
2025-10-16T06:44:48.490545+00:00,4.965000,-0.060040,
2025-10-16T06:44:48.495545+00:00,4.970000,-0.039900,
2025-10-16T06:44:48.500545+00:00,4.975000,-0.036860,
2025-10-16T06:44:48.505545+00:00,4.980000,-0.045600,
2025-10-16T06:44:48.510545+00:00,4.985000,-0.045980,
2025-10-16T06:44:48.515545+00:00,4.990000,-0.042180,
2025-10-16T06:44:48.520545+00:00,4.995000,-0.048640,
2025-10-16T06:44:48.525545+00:00,5.000000,-0.059280,
2025-10-16T06:44:48.530545+00:00,5.005000,-0.062320,
2025-10-16T06:44:48.535545+00:00,5.010000,-0.058520,
2025-10-16T06:44:48.540545+00:00,5.015000,-0.053960,
2025-10-16T06:44:48.545545+00:00,5.020000,-0.047500,
2025-10-16T06:44:48.550545+00:00,5.025000,-0.044080,
2025-10-16T06:44:48.555545+00:00,5.030000,-0.049780,
2025-10-16T06:44:48.560545+00:00,5.035000,-0.063080,
2025-10-16T06:44:48.565545+00:00,5.040000,-0.067640,
2025-10-16T06:44:48.570545+00:00,5.045000,-0.050160,
2025-10-16T06:44:48.575545+00:00,5.050000,-0.028500,
2025-10-16T06:44:48.580545+00:00,5.055000,-0.026980,
2025-10-16T06:44:48.585545+00:00,5.060000,-0.037620,
2025-10-16T06:44:48.590545+00:00,5.065000,-0.040280,
2025-10-16T06:44:48.595545+00:00,5.070000,-0.045600,
2025-10-16T06:44:48.600545+00:00,5.075000,-0.060800,
2025-10-16T06:44:48.605545+00:00,5.080000,-0.071060,
2025-10-16T06:44:48.610545+00:00,5.085000,-0.063080,
2025-10-16T06:44:48.615545+00:00,5.090000,-0.050160,
2025-10-16T06:44:48.620545+00:00,5.095000,-0.043700,
2025-10-16T06:44:48.625545+00:00,5.100000,-0.038000,
2025-10-16T06:44:48.630545+00:00,5.105000,-0.022800,
2025-10-16T06:44:48.635545+00:00,5.110000,-0.010640,
2025-10-16T06:44:48.640545+00:00,5.115000,-0.023560,
2025-10-16T06:44:48.645545+00:00,5.120000,-0.044080,
2025-10-16T06:44:48.650545+00:00,5.125000,-0.053200,
2025-10-16T06:44:48.655545+00:00,5.130000,-0.057380,
2025-10-16T06:44:48.660545+00:00,5.135000,-0.060420,
2025-10-16T06:44:48.665545+00:00,5.140000,-0.052060,
2025-10-16T06:44:48.670545+00:00,5.145000,-0.036860,
2025-10-16T06:44:48.675545+00:00,5.150000,-0.031160,
2025-10-16T06:44:48.680545+00:00,5.155000,-0.046740,
2025-10-16T06:44:48.685545+00:00,5.160000,-0.067640,
2025-10-16T06:44:48.690545+00:00,5.165000,-0.064220,
2025-10-16T06:44:48.695545+00:00,5.170000,-0.038000,
2025-10-16T06:44:48.700545+00:00,5.175000,-0.015580,
2025-10-16T06:44:48.705545+00:00,5.180000,-0.009500,
2025-10-16T06:44:48.710545+00:00,5.185000,-0.017100,
2025-10-16T06:44:48.715545+00:00,5.190000,-0.032300,
2025-10-16T06:44:48.720545+00:00,5.195000,-0.040660,
2025-10-16T06:44:48.725545+00:00,5.200000,-0.045220,
2025-10-16T06:44:48.730545+00:00,5.205000,-0.049020,
2025-10-16T06:44:48.735545+00:00,5.210000,-0.049780,
2025-10-16T06:44:48.740545+00:00,5.215000,-0.041040,
2025-10-16T06:44:48.745545+00:00,5.220000,-0.019000,
2025-10-16T06:44:48.750545+00:00,5.225000,-0.002280,
2025-10-16T06:44:48.755545+00:00,5.230000,-0.007600,
2025-10-16T06:44:48.760545+00:00,5.235000,-0.025080,
2025-10-16T06:44:48.765545+00:00,5.240000,-0.031920,
2025-10-16T06:44:48.770545+00:00,5.245000,-0.031920,
2025-10-16T06:44:48.775545+00:00,5.250000,-0.035720,
2025-10-16T06:44:48.780545+00:00,5.255000,-0.039140,
2025-10-16T06:44:48.785545+00:00,5.260000,-0.041040,
2025-10-16T06:44:48.790545+00:00,5.265000,-0.049020,
2025-10-16T06:44:48.795545+00:00,5.270000,-0.049400,
2025-10-16T06:44:48.800545+00:00,5.275000,-0.038380,
2025-10-16T06:44:48.805545+00:00,5.280000,-0.031160,
2025-10-16T06:44:48.810545+00:00,5.285000,-0.039520,
2025-10-16T06:44:48.815545+00:00,5.290000,-0.053960,
2025-10-16T06:44:48.820545+00:00,5.295000,-0.052820,
2025-10-16T06:44:48.825545+00:00,5.300000,-0.040660,
2025-10-16T06:44:48.830545+00:00,5.305000,-0.037620,
2025-10-16T06:44:48.835545+00:00,5.310000,-0.046360,
2025-10-16T06:44:48.840545+00:00,5.315000,-0.051680,
2025-10-16T06:44:48.845545+00:00,5.320000,-0.051300,
2025-10-16T06:44:48.850545+00:00,5.325000,-0.059660,
2025-10-16T06:44:48.855545+00:00,5.330000,-0.069920,
2025-10-16T06:44:48.860545+00:00,5.335000,-0.063460,
2025-10-16T06:44:48.865545+00:00,5.340000,-0.046360,
2025-10-16T06:44:48.870545+00:00,5.345000,-0.040280,
2025-10-16T06:44:48.875545+00:00,5.350000,-0.046360,
2025-10-16T06:44:48.880545+00:00,5.355000,-0.050160,
2025-10-16T06:44:48.885545+00:00,5.360000,-0.047500,
2025-10-16T06:44:48.890545+00:00,5.365000,-0.045220,
2025-10-16T06:44:48.895545+00:00,5.370000,-0.044460,
2025-10-16T06:44:48.900545+00:00,5.375000,-0.047120,
2025-10-16T06:44:48.905545+00:00,5.380000,-0.053960,
2025-10-16T06:44:48.910545+00:00,5.385000,-0.069920,
2025-10-16T06:44:48.915545+00:00,5.390000,-0.085500,
2025-10-16T06:44:48.920545+00:00,5.395000,-0.088920,
2025-10-16T06:44:48.925545+00:00,5.400000,-0.071440,
2025-10-16T06:44:48.930545+00:00,5.405000,-0.047500,
2025-10-16T06:44:48.935545+00:00,5.410000,-0.039520,
2025-10-16T06:44:48.940545+00:00,5.415000,-0.053960,
2025-10-16T06:44:48.945545+00:00,5.420000,-0.067260,
2025-10-16T06:44:48.950545+00:00,5.425000,-0.066500,
2025-10-16T06:44:48.955545+00:00,5.430000,-0.064980,
2025-10-16T06:44:48.960545+00:00,5.435000,-0.074100,
2025-10-16T06:44:48.965545+00:00,5.440000,-0.077520,
2025-10-16T06:44:48.970545+00:00,5.445000,-0.063840,
2025-10-16T06:44:48.975545+00:00,5.450000,-0.039520,
2025-10-16T06:44:48.980545+00:00,5.455000,-0.026600,
2025-10-16T06:44:48.985545+00:00,5.460000,-0.037620,
2025-10-16T06:44:48.990545+00:00,5.465000,-0.057380,
2025-10-16T06:44:48.995545+00:00,5.470000,-0.062700,
2025-10-16T06:44:49.000545+00:00,5.475000,-0.055860,
2025-10-16T06:44:49.005545+00:00,5.480000,-0.049020,
2025-10-16T06:44:49.010545+00:00,5.485000,-0.046360,
2025-10-16T06:44:49.015545+00:00,5.490000,-0.048640,
2025-10-16T06:44:49.020545+00:00,5.495000,-0.052820,
2025-10-16T06:44:49.025545+00:00,5.500000,-0.049780,
2025-10-16T06:44:49.030545+00:00,5.505000,-0.045220,
2025-10-16T06:44:49.035545+00:00,5.510000,-0.050160,
2025-10-16T06:44:49.040545+00:00,5.515000,-0.061560,
2025-10-16T06:44:49.045545+00:00,5.520000,-0.063460,
2025-10-16T06:44:49.050545+00:00,5.525000,-0.050160,
2025-10-16T06:44:49.055545+00:00,5.530000,-0.036100,
2025-10-16T06:44:49.060545+00:00,5.535000,-0.034200,
2025-10-16T06:44:49.065545+00:00,5.540000,-0.028880,
2025-10-16T06:44:49.070545+00:00,5.545000,-0.015580,
2025-10-16T06:44:49.075545+00:00,5.550000,-0.014060,
2025-10-16T06:44:49.080545+00:00,5.555000,-0.039140,
2025-10-16T06:44:49.085545+00:00,5.560000,-0.071820,
2025-10-16T06:44:49.090545+00:00,5.565000,-0.079420,
2025-10-16T06:44:49.095545+00:00,5.570000,-0.060040,
2025-10-16T06:44:49.100545+00:00,5.575000,-0.044460,
2025-10-16T06:44:49.105545+00:00,5.580000,-0.046740,
2025-10-16T06:44:49.110545+00:00,5.585000,-0.047880,
2025-10-16T06:44:49.115545+00:00,5.590000,-0.042560,
2025-10-16T06:44:49.120545+00:00,5.595000,-0.041800,
2025-10-16T06:44:49.125545+00:00,5.600000,-0.043700,
2025-10-16T06:44:49.130545+00:00,5.605000,-0.034960,
2025-10-16T06:44:49.135545+00:00,5.610000,-0.021280,
2025-10-16T06:44:49.140545+00:00,5.615000,-0.029260,
2025-10-16T06:44:49.145545+00:00,5.620000,-0.060040,
2025-10-16T06:44:49.150545+00:00,5.625000,-0.081320,
2025-10-16T06:44:49.155545+00:00,5.630000,-0.068020,
2025-10-16T06:44:49.160545+00:00,5.635000,-0.030400,
2025-10-16T06:44:49.165545+00:00,5.640000,-0.003800,
2025-10-16T06:44:49.170545+00:00,5.645000,-0.013300,
2025-10-16T06:44:49.175545+00:00,5.650000,-0.049780,
2025-10-16T06:44:49.180545+00:00,5.655000,-0.075240,
2025-10-16T06:44:49.185545+00:00,5.660000,-0.067640,
2025-10-16T06:44:49.190545+00:00,5.665000,-0.047120,
2025-10-16T06:44:49.195545+00:00,5.670000,-0.043320,
2025-10-16T06:44:49.200545+00:00,5.675000,-0.064220,
2025-10-16T06:44:49.205545+00:00,5.680000,-0.080940,
2025-10-16T06:44:49.210545+00:00,5.685000,-0.061560,
2025-10-16T06:44:49.215545+00:00,5.690000,-0.022800,
2025-10-16T06:44:49.220545+00:00,5.695000,-0.009880,
2025-10-16T06:44:49.225545+00:00,5.700000,-0.023560,
2025-10-16T06:44:49.230545+00:00,5.705000,-0.031920,
2025-10-16T06:44:49.235545+00:00,5.710000,-0.020520,
2025-10-16T06:44:49.240545+00:00,5.715000,-0.008360,
2025-10-16T06:44:49.245545+00:00,5.720000,-0.013680,
2025-10-16T06:44:49.250545+00:00,5.725000,-0.042940,
2025-10-16T06:44:49.255545+00:00,5.730000,-0.079800,
2025-10-16T06:44:49.260545+00:00,5.735000,-0.092720,
2025-10-16T06:44:49.265545+00:00,5.740000,-0.073720,
2025-10-16T06:44:49.270545+00:00,5.745000,-0.042940,
2025-10-16T06:44:49.275545+00:00,5.750000,-0.027740,
2025-10-16T06:44:49.280545+00:00,5.755000,-0.029640,
2025-10-16T06:44:49.285545+00:00,5.760000,-0.037620,
2025-10-16T06:44:49.290545+00:00,5.765000,-0.039520,
2025-10-16T06:44:49.295545+00:00,5.770000,-0.044460,
2025-10-16T06:44:49.300545+00:00,5.775000,-0.042180,
2025-10-16T06:44:49.305545+00:00,5.780000,-0.032680,
2025-10-16T06:44:49.310545+00:00,5.785000,-0.028120,
2025-10-16T06:44:49.315545+00:00,5.790000,-0.038380,
2025-10-16T06:44:49.320545+00:00,5.795000,-0.052820,
2025-10-16T06:44:49.325545+00:00,5.800000,-0.052060,
2025-10-16T06:44:49.330545+00:00,5.805000,-0.042940,
2025-10-16T06:44:49.335545+00:00,5.810000,-0.041420,
2025-10-16T06:44:49.340545+00:00,5.815000,-0.047120,
2025-10-16T06:44:49.345545+00:00,5.820000,-0.041040,
2025-10-16T06:44:49.350545+00:00,5.825000,-0.031160,
2025-10-16T06:44:49.355545+00:00,5.830000,-0.037240,
2025-10-16T06:44:49.360545+00:00,5.835000,-0.054720,
2025-10-16T06:44:49.365545+00:00,5.840000,-0.059280,
2025-10-16T06:44:49.370545+00:00,5.845000,-0.046740,
2025-10-16T06:44:49.375545+00:00,5.850000,-0.031160,
2025-10-16T06:44:49.380545+00:00,5.855000,-0.027360,
2025-10-16T06:44:49.385545+00:00,5.860000,-0.036860,
2025-10-16T06:44:49.390545+00:00,5.865000,-0.051680,
2025-10-16T06:44:49.395545+00:00,5.870000,-0.056240,
2025-10-16T06:44:49.400545+00:00,5.875000,-0.050540,
2025-10-16T06:44:49.405545+00:00,5.880000,-0.038760,
2025-10-16T06:44:49.410545+00:00,5.885000,-0.030400,
2025-10-16T06:44:49.415545+00:00,5.890000,-0.036860,
2025-10-16T06:44:49.420545+00:00,5.895000,-0.049780,
2025-10-16T06:44:49.425545+00:00,5.900000,-0.049780,
2025-10-16T06:44:49.430545+00:00,5.905000,-0.035720,
2025-10-16T06:44:49.435545+00:00,5.910000,-0.022040,
2025-10-16T06:44:49.440545+00:00,5.915000,-0.023560,
2025-10-16T06:44:49.445545+00:00,5.920000,-0.031540,
2025-10-16T06:44:49.450545+00:00,5.925000,-0.035720,
2025-10-16T06:44:49.455545+00:00,5.930000,-0.039520,
2025-10-16T06:44:49.460545+00:00,5.935000,-0.052440,
2025-10-16T06:44:49.465545+00:00,5.940000,-0.068400,
2025-10-16T06:44:49.470545+00:00,5.945000,-0.064220,
2025-10-16T06:44:49.475545+00:00,5.950000,-0.041040,
2025-10-16T06:44:49.480545+00:00,5.955000,-0.022420,
2025-10-16T06:44:49.485545+00:00,5.960000,-0.026600,
2025-10-16T06:44:49.490545+00:00,5.965000,-0.045220,
2025-10-16T06:44:49.495545+00:00,5.970000,-0.051300,
2025-10-16T06:44:49.500545+00:00,5.975000,-0.041800,
2025-10-16T06:44:49.505545+00:00,5.980000,-0.032300,
2025-10-16T06:44:49.510545+00:00,5.985000,-0.025840,
2025-10-16T06:44:49.515545+00:00,5.990000,-0.024320,
2025-10-16T06:44:49.520545+00:00,5.995000,-0.034960,
2025-10-16T06:44:49.525545+00:00,6.000000,-0.054340,
2025-10-16T06:44:49.530545+00:00,6.005000,-0.067260,
2025-10-16T06:44:49.535545+00:00,6.010000,-0.071440,
2025-10-16T06:44:49.540545+00:00,6.015000,-0.068400,
2025-10-16T06:44:49.545545+00:00,6.020000,-0.063460,
2025-10-16T06:44:49.550545+00:00,6.025000,-0.053580,
2025-10-16T06:44:49.555545+00:00,6.030000,-0.038380,
2025-10-16T06:44:49.560545+00:00,6.035000,-0.028880,
2025-10-16T06:44:49.565545+00:00,6.040000,-0.028500,
2025-10-16T06:44:49.570545+00:00,6.045000,-0.028120,
2025-10-16T06:44:49.575545+00:00,6.050000,-0.028500,
2025-10-16T06:44:49.580545+00:00,6.055000,-0.043700,
2025-10-16T06:44:49.585545+00:00,6.060000,-0.069540,
2025-10-16T06:44:49.590545+00:00,6.065000,-0.076760,
2025-10-16T06:44:49.595545+00:00,6.070000,-0.056240,
2025-10-16T06:44:49.600545+00:00,6.075000,-0.036860,
2025-10-16T06:44:49.605545+00:00,6.080000,-0.043700,
2025-10-16T06:44:49.610545+00:00,6.085000,-0.064220,
2025-10-16T06:44:49.615545+00:00,6.090000,-0.068400,
2025-10-16T06:44:49.620545+00:00,6.095000,-0.054340,
2025-10-16T06:44:49.625545+00:00,6.100000,-0.044460,
2025-10-16T06:44:49.630545+00:00,6.105000,-0.045220,
2025-10-16T06:44:49.635545+00:00,6.110000,-0.043700,
2025-10-16T06:44:49.640545+00:00,6.115000,-0.036860,
2025-10-16T06:44:49.645545+00:00,6.120000,-0.028500,
2025-10-16T06:44:49.650545+00:00,6.125000,-0.030400,
2025-10-16T06:44:49.655545+00:00,6.130000,-0.037620,
2025-10-16T06:44:49.660545+00:00,6.135000,-0.038760,
2025-10-16T06:44:49.665545+00:00,6.140000,-0.030780,
2025-10-16T06:44:49.670545+00:00,6.145000,-0.032300,
2025-10-16T06:44:49.675545+00:00,6.150000,-0.037240,
2025-10-16T06:44:49.680545+00:00,6.155000,-0.036100,
2025-10-16T06:44:49.685545+00:00,6.160000,-0.035340,
2025-10-16T06:44:49.690545+00:00,6.165000,-0.043700,
2025-10-16T06:44:49.695545+00:00,6.170000,-0.055860,
2025-10-16T06:44:49.700545+00:00,6.175000,-0.062320,
2025-10-16T06:44:49.705545+00:00,6.180000,-0.055860,
2025-10-16T06:44:49.710545+00:00,6.185000,-0.039520,
2025-10-16T06:44:49.715545+00:00,6.190000,-0.029260,
2025-10-16T06:44:49.720545+00:00,6.195000,-0.031540,
2025-10-16T06:44:49.725545+00:00,6.200000,-0.038760,
2025-10-16T06:44:49.730545+00:00,6.205000,-0.050540,
2025-10-16T06:44:49.735545+00:00,6.210000,-0.058140,
2025-10-16T06:44:49.740545+00:00,6.215000,-0.058140,
2025-10-16T06:44:49.745545+00:00,6.220000,-0.055480,
2025-10-16T06:44:49.750545+00:00,6.225000,-0.056240,
2025-10-16T06:44:49.755545+00:00,6.230000,-0.061940,
2025-10-16T06:44:49.760545+00:00,6.235000,-0.064220,
2025-10-16T06:44:49.765545+00:00,6.240000,-0.055480,
2025-10-16T06:44:49.770545+00:00,6.245000,-0.048260,
2025-10-16T06:44:49.775545+00:00,6.250000,-0.050540,
2025-10-16T06:44:49.780545+00:00,6.255000,-0.060040,
2025-10-16T06:44:49.785545+00:00,6.260000,-0.063840,
2025-10-16T06:44:49.790545+00:00,6.265000,-0.052060,
2025-10-16T06:44:49.795545+00:00,6.270000,-0.030400,
2025-10-16T06:44:49.800545+00:00,6.275000,-0.020520,
2025-10-16T06:44:49.805545+00:00,6.280000,-0.020520,
2025-10-16T06:44:49.810545+00:00,6.285000,-0.024700,
2025-10-16T06:44:49.815545+00:00,6.290000,-0.035340,
2025-10-16T06:44:49.820545+00:00,6.295000,-0.053200,
2025-10-16T06:44:49.825545+00:00,6.300000,-0.055860,
2025-10-16T06:44:49.830545+00:00,6.305000,-0.037620,
2025-10-16T06:44:49.835545+00:00,6.310000,-0.022800,
2025-10-16T06:44:49.840545+00:00,6.315000,-0.028500,
2025-10-16T06:44:49.845545+00:00,6.320000,-0.045600,
2025-10-16T06:44:49.850545+00:00,6.325000,-0.053200,
2025-10-16T06:44:49.855545+00:00,6.330000,-0.054340,
2025-10-16T06:44:49.860545+00:00,6.335000,-0.067260,
2025-10-16T06:44:49.865545+00:00,6.340000,-0.077140,
2025-10-16T06:44:49.870545+00:00,6.345000,-0.065740,
2025-10-16T06:44:49.875545+00:00,6.350000,-0.044460,
2025-10-16T06:44:49.880545+00:00,6.355000,-0.039520,
2025-10-16T06:44:49.885545+00:00,6.360000,-0.046740,
2025-10-16T06:44:49.890545+00:00,6.365000,-0.049780,
2025-10-16T06:44:49.895545+00:00,6.370000,-0.044460,
2025-10-16T06:44:49.900545+00:00,6.375000,-0.034580,
2025-10-16T06:44:49.905545+00:00,6.380000,-0.028500,
2025-10-16T06:44:49.910545+00:00,6.385000,-0.027740,
2025-10-16T06:44:49.915545+00:00,6.390000,-0.033060,
2025-10-16T06:44:49.920545+00:00,6.395000,-0.044840,
2025-10-16T06:44:49.925545+00:00,6.400000,-0.052440,
2025-10-16T06:44:49.930545+00:00,6.405000,-0.055480,
2025-10-16T06:44:49.935545+00:00,6.410000,-0.060420,
2025-10-16T06:44:49.940545+00:00,6.415000,-0.063840,
2025-10-16T06:44:49.945545+00:00,6.420000,-0.047880,
2025-10-16T06:44:49.950545+00:00,6.425000,-0.023940,
2025-10-16T06:44:49.955545+00:00,6.430000,-0.016720,
2025-10-16T06:44:49.960545+00:00,6.435000,-0.036480,
2025-10-16T06:44:49.965545+00:00,6.440000,-0.053200,
2025-10-16T06:44:49.970545+00:00,6.445000,-0.047120,
2025-10-16T06:44:49.975545+00:00,6.450000,-0.032680,
2025-10-16T06:44:49.980545+00:00,6.455000,-0.028880,
2025-10-16T06:44:49.985545+00:00,6.460000,-0.032680,
2025-10-16T06:44:49.990545+00:00,6.465000,-0.029640,
2025-10-16T06:44:49.995545+00:00,6.470000,-0.025460,
2025-10-16T06:44:50.000545+00:00,6.475000,-0.040280,
2025-10-16T06:44:50.005545+00:00,6.480000,-0.064600,
2025-10-16T06:44:50.010545+00:00,6.485000,-0.071820,
2025-10-16T06:44:50.015545+00:00,6.490000,-0.053960,
2025-10-16T06:44:50.020545+00:00,6.495000,-0.036860,
2025-10-16T06:44:50.025545+00:00,6.500000,-0.039140,
2025-10-16T06:44:50.030545+00:00,6.505000,-0.043700,
2025-10-16T06:44:50.035545+00:00,6.510000,-0.039900,
2025-10-16T06:44:50.040545+00:00,6.515000,-0.033440,
2025-10-16T06:44:50.045545+00:00,6.520000,-0.029640,
2025-10-16T06:44:50.050545+00:00,6.525000,-0.028500,
2025-10-16T06:44:50.055545+00:00,6.530000,-0.034200,
2025-10-16T06:44:50.060545+00:00,6.535000,-0.041800,
2025-10-16T06:44:50.065545+00:00,6.540000,-0.037620,
2025-10-16T06:44:50.070545+00:00,6.545000,-0.033060,
2025-10-16T06:44:50.075545+00:00,6.550000,-0.036100,
2025-10-16T06:44:50.080545+00:00,6.555000,-0.041040,
2025-10-16T06:44:50.085545+00:00,6.560000,-0.038380,
2025-10-16T06:44:50.090545+00:00,6.565000,-0.033440,
2025-10-16T06:44:50.095545+00:00,6.570000,-0.041420,
2025-10-16T06:44:50.100545+00:00,6.575000,-0.056620,
2025-10-16T06:44:50.105545+00:00,6.580000,-0.049400,
2025-10-16T06:44:50.110545+00:00,6.585000,-0.023560,
2025-10-16T06:44:50.115545+00:00,6.590000,-0.014820,
2025-10-16T06:44:50.120545+00:00,6.595000,-0.035340,
2025-10-16T06:44:50.125545+00:00,6.600000,-0.056620,
2025-10-16T06:44:50.130545+00:00,6.605000,-0.056620,
2025-10-16T06:44:50.135545+00:00,6.610000,-0.047500,
2025-10-16T06:44:50.140545+00:00,6.615000,-0.049400,
2025-10-16T06:44:50.145545+00:00,6.620000,-0.054720,
2025-10-16T06:44:50.150545+00:00,6.625000,-0.053580,
2025-10-16T06:44:50.155545+00:00,6.630000,-0.052820,
2025-10-16T06:44:50.160545+00:00,6.635000,-0.056240,
2025-10-16T06:44:50.165545+00:00,6.640000,-0.061180,
2025-10-16T06:44:50.170545+00:00,6.645000,-0.069160,
2025-10-16T06:44:50.175545+00:00,6.650000,-0.081700,
2025-10-16T06:44:50.180545+00:00,6.655000,-0.085880,
2025-10-16T06:44:50.185545+00:00,6.660000,-0.077900,
2025-10-16T06:44:50.190545+00:00,6.665000,-0.062320,
2025-10-16T06:44:50.195545+00:00,6.670000,-0.050160,
2025-10-16T06:44:50.200545+00:00,6.675000,-0.046740,
2025-10-16T06:44:50.205545+00:00,6.680000,-0.050920,
2025-10-16T06:44:50.210545+00:00,6.685000,-0.044460,
2025-10-16T06:44:50.215545+00:00,6.690000,-0.028500,
2025-10-16T06:44:50.220545+00:00,6.695000,-0.023560,
2025-10-16T06:44:50.225545+00:00,6.700000,-0.039140,
2025-10-16T06:44:50.230545+00:00,6.705000,-0.047880,
2025-10-16T06:44:50.235545+00:00,6.710000,-0.038380,
2025-10-16T06:44:50.240545+00:00,6.715000,-0.019760,
2025-10-16T06:44:50.245545+00:00,6.720000,-0.016340,
2025-10-16T06:44:50.250545+00:00,6.725000,-0.042940,
2025-10-16T06:44:50.255545+00:00,6.730000,-0.074100,
2025-10-16T06:44:50.260545+00:00,6.735000,-0.066880,
2025-10-16T06:44:50.265545+00:00,6.740000,-0.032680,
2025-10-16T06:44:50.270545+00:00,6.745000,-0.014820,
2025-10-16T06:44:50.275545+00:00,6.750000,-0.031160,
2025-10-16T06:44:50.280545+00:00,6.755000,-0.050540,
2025-10-16T06:44:50.285545+00:00,6.760000,-0.043700,
2025-10-16T06:44:50.290545+00:00,6.765000,-0.019380,
2025-10-16T06:44:50.295545+00:00,6.770000,-0.011020,
2025-10-16T06:44:50.300545+00:00,6.775000,-0.026220,
2025-10-16T06:44:50.305545+00:00,6.780000,-0.041040,
2025-10-16T06:44:50.310545+00:00,6.785000,-0.040660,
2025-10-16T06:44:50.315545+00:00,6.790000,-0.034200,
2025-10-16T06:44:50.320545+00:00,6.795000,-0.040280,
2025-10-16T06:44:50.325545+00:00,6.800000,-0.050920,
2025-10-16T06:44:50.330545+00:00,6.805000,-0.052440,
2025-10-16T06:44:50.335545+00:00,6.810000,-0.044080,
2025-10-16T06:44:50.340545+00:00,6.815000,-0.035720,
2025-10-16T06:44:50.345545+00:00,6.820000,-0.032300,
2025-10-16T06:44:50.350545+00:00,6.825000,-0.027740,
2025-10-16T06:44:50.355545+00:00,6.830000,-0.023940,
2025-10-16T06:44:50.360545+00:00,6.835000,-0.025460,
2025-10-16T06:44:50.365545+00:00,6.840000,-0.031920,
2025-10-16T06:44:50.370545+00:00,6.845000,-0.034580,
2025-10-16T06:44:50.375545+00:00,6.850000,-0.028120,
2025-10-16T06:44:50.380545+00:00,6.855000,-0.026220,
2025-10-16T06:44:50.385545+00:00,6.860000,-0.039900,
2025-10-16T06:44:50.390545+00:00,6.865000,-0.058900,
2025-10-16T06:44:50.395545+00:00,6.870000,-0.057380,
2025-10-16T06:44:50.400545+00:00,6.875000,-0.036860,
2025-10-16T06:44:50.405545+00:00,6.880000,-0.019380,
2025-10-16T06:44:50.410545+00:00,6.885000,-0.017100,
2025-10-16T06:44:50.415545+00:00,6.890000,-0.021660,
2025-10-16T06:44:50.420545+00:00,6.895000,-0.026220,
2025-10-16T06:44:50.425545+00:00,6.900000,-0.032300,
2025-10-16T06:44:50.430545+00:00,6.905000,-0.040660,
2025-10-16T06:44:50.435545+00:00,6.910000,-0.043700,
2025-10-16T06:44:50.440545+00:00,6.915000,-0.038000,
2025-10-16T06:44:50.445545+00:00,6.920000,-0.033060,
2025-10-16T06:44:50.450545+00:00,6.925000,-0.034580,
2025-10-16T06:44:50.455545+00:00,6.930000,-0.042940,
2025-10-16T06:44:50.460545+00:00,6.935000,-0.046740,
2025-10-16T06:44:50.465545+00:00,6.940000,-0.039520,
2025-10-16T06:44:50.470545+00:00,6.945000,-0.031540,
2025-10-16T06:44:50.475545+00:00,6.950000,-0.038380,
2025-10-16T06:44:50.480545+00:00,6.955000,-0.056240,
2025-10-16T06:44:50.485545+00:00,6.960000,-0.073720,
2025-10-16T06:44:50.490545+00:00,6.965000,-0.083220,
2025-10-16T06:44:50.495545+00:00,6.970000,-0.081700,
2025-10-16T06:44:50.500545+00:00,6.975000,-0.067260,
2025-10-16T06:44:50.505545+00:00,6.980000,-0.047120,
2025-10-16T06:44:50.510545+00:00,6.985000,-0.028500,
2025-10-16T06:44:50.515545+00:00,6.990000,-0.026600,
2025-10-16T06:44:50.520545+00:00,6.995000,-0.039140,
2025-10-16T06:44:50.525545+00:00,7.000000,-0.050920,
2025-10-16T06:44:50.530545+00:00,7.005000,-0.048260,
2025-10-16T06:44:50.535545+00:00,7.010000,-0.039520,
2025-10-16T06:44:50.540545+00:00,7.015000,-0.040280,
2025-10-16T06:44:50.545545+00:00,7.020000,-0.049400,
2025-10-16T06:44:50.550545+00:00,7.025000,-0.054340,
2025-10-16T06:44:50.555545+00:00,7.030000,-0.046740,
2025-10-16T06:44:50.560545+00:00,7.035000,-0.026600,
2025-10-16T06:44:50.565545+00:00,7.040000,-0.005700,
2025-10-16T06:44:50.570545+00:00,7.045000,-0.005320,
2025-10-16T06:44:50.575545+00:00,7.050000,-0.026220,
2025-10-16T06:44:50.580545+00:00,7.055000,-0.051680,
2025-10-16T06:44:50.585545+00:00,7.060000,-0.059280,
2025-10-16T06:44:50.590545+00:00,7.065000,-0.050540,
2025-10-16T06:44:50.595545+00:00,7.070000,-0.043700,
2025-10-16T06:44:50.600545+00:00,7.075000,-0.048260,
2025-10-16T06:44:50.605545+00:00,7.080000,-0.053580,
2025-10-16T06:44:50.610545+00:00,7.085000,-0.047500,
2025-10-16T06:44:50.615545+00:00,7.090000,-0.039520,
2025-10-16T06:44:50.620545+00:00,7.095000,-0.043700,
2025-10-16T06:44:50.625545+00:00,7.100000,-0.049020,
2025-10-16T06:44:50.630545+00:00,7.105000,-0.042180,
2025-10-16T06:44:50.635545+00:00,7.110000,-0.027740,
2025-10-16T06:44:50.640545+00:00,7.115000,-0.028120,
2025-10-16T06:44:50.645545+00:00,7.120000,-0.044080,
2025-10-16T06:44:50.650545+00:00,7.125000,-0.058900,
2025-10-16T06:44:50.655545+00:00,7.130000,-0.052440,
2025-10-16T06:44:50.660545+00:00,7.135000,-0.035720,
2025-10-16T06:44:50.665545+00:00,7.140000,-0.026220,
2025-10-16T06:44:50.670545+00:00,7.145000,-0.035720,
2025-10-16T06:44:50.675545+00:00,7.150000,-0.050540,
2025-10-16T06:44:50.680545+00:00,7.155000,-0.057000,
2025-10-16T06:44:50.685545+00:00,7.160000,-0.057380,
2025-10-16T06:44:50.690545+00:00,7.165000,-0.060040,
2025-10-16T06:44:50.695545+00:00,7.170000,-0.059280,
2025-10-16T06:44:50.700545+00:00,7.175000,-0.057760,
2025-10-16T06:44:50.705545+00:00,7.180000,-0.062320,
2025-10-16T06:44:50.710545+00:00,7.185000,-0.069920,
2025-10-16T06:44:50.715545+00:00,7.190000,-0.072580,
2025-10-16T06:44:50.720545+00:00,7.195000,-0.066500,
2025-10-16T06:44:50.725545+00:00,7.200000,-0.057760,
2025-10-16T06:44:50.730545+00:00,7.205000,-0.049020,
2025-10-16T06:44:50.735545+00:00,7.210000,-0.042180,
2025-10-16T06:44:50.740545+00:00,7.215000,-0.040660,
2025-10-16T06:44:50.745545+00:00,7.220000,-0.042560,
2025-10-16T06:44:50.750545+00:00,7.225000,-0.051300,
2025-10-16T06:44:50.755545+00:00,7.230000,-0.061560,
2025-10-16T06:44:50.760545+00:00,7.235000,-0.056620,
2025-10-16T06:44:50.765545+00:00,7.240000,-0.037240,
2025-10-16T06:44:50.770545+00:00,7.245000,-0.027740,
2025-10-16T06:44:50.775545+00:00,7.250000,-0.040280,
2025-10-16T06:44:50.780545+00:00,7.255000,-0.059280,
2025-10-16T06:44:50.785545+00:00,7.260000,-0.068780,
2025-10-16T06:44:50.790545+00:00,7.265000,-0.061940,
2025-10-16T06:44:50.795545+00:00,7.270000,-0.049400,
2025-10-16T06:44:50.800545+00:00,7.275000,-0.041040,
2025-10-16T06:44:50.805545+00:00,7.280000,-0.033820,
2025-10-16T06:44:50.810545+00:00,7.285000,-0.027740,
2025-10-16T06:44:50.815545+00:00,7.290000,-0.025840,
2025-10-16T06:44:50.820545+00:00,7.295000,-0.030780,
2025-10-16T06:44:50.825545+00:00,7.300000,-0.039900,
2025-10-16T06:44:50.830545+00:00,7.305000,-0.041040,
2025-10-16T06:44:50.835545+00:00,7.310000,-0.033060,
2025-10-16T06:44:50.840545+00:00,7.315000,-0.025460,
2025-10-16T06:44:50.845545+00:00,7.320000,-0.026600,
2025-10-16T06:44:50.850545+00:00,7.325000,-0.039520,
2025-10-16T06:44:50.855545+00:00,7.330000,-0.052820,
2025-10-16T06:44:50.860545+00:00,7.335000,-0.052820,
2025-10-16T06:44:50.865545+00:00,7.340000,-0.041040,
2025-10-16T06:44:50.870545+00:00,7.345000,-0.033820,
2025-10-16T06:44:50.875545+00:00,7.350000,-0.036100,
2025-10-16T06:44:50.880545+00:00,7.355000,-0.040280,
2025-10-16T06:44:50.885545+00:00,7.360000,-0.042940,
2025-10-16T06:44:50.890545+00:00,7.365000,-0.043320,
2025-10-16T06:44:50.895545+00:00,7.370000,-0.032300,
2025-10-16T06:44:50.900545+00:00,7.375000,-0.017480,
2025-10-16T06:44:50.905545+00:00,7.380000,-0.017480,
2025-10-16T06:44:50.910545+00:00,7.385000,-0.040660,
2025-10-16T06:44:50.915545+00:00,7.390000,-0.065740,
2025-10-16T06:44:50.920545+00:00,7.395000,-0.070300,
2025-10-16T06:44:50.925545+00:00,7.400000,-0.049780,
2025-10-16T06:44:50.930545+00:00,7.405000,-0.028120,
2025-10-16T06:44:50.935545+00:00,7.410000,-0.028880,
2025-10-16T06:44:50.940545+00:00,7.415000,-0.048640,
2025-10-16T06:44:50.945545+00:00,7.420000,-0.057760,
2025-10-16T06:44:50.950545+00:00,7.425000,-0.041420,
2025-10-16T06:44:50.955545+00:00,7.430000,-0.025080,
2025-10-16T06:44:50.960545+00:00,7.435000,-0.030780,
2025-10-16T06:44:50.965545+00:00,7.440000,-0.047120,
2025-10-16T06:44:50.970545+00:00,7.445000,-0.052440,
2025-10-16T06:44:50.975545+00:00,7.450000,-0.045220,
2025-10-16T06:44:50.980545+00:00,7.455000,-0.034960,
2025-10-16T06:44:50.985545+00:00,7.460000,-0.039520,
2025-10-16T06:44:50.990545+00:00,7.465000,-0.047880,
2025-10-16T06:44:50.995545+00:00,7.470000,-0.039140,
2025-10-16T06:44:51.000545+00:00,7.475000,-0.020900,
2025-10-16T06:44:51.005545+00:00,7.480000,-0.018620,
2025-10-16T06:44:51.010545+00:00,7.485000,-0.031160,
2025-10-16T06:44:51.015545+00:00,7.490000,-0.047120,
2025-10-16T06:44:51.020545+00:00,7.495000,-0.056620,
2025-10-16T06:44:51.025545+00:00,7.500000,-0.055480,
2025-10-16T06:44:51.030545+00:00,7.505000,-0.044460,
2025-10-16T06:44:51.035545+00:00,7.510000,-0.031540,
2025-10-16T06:44:51.040545+00:00,7.515000,-0.026600,
2025-10-16T06:44:51.045545+00:00,7.520000,-0.031160,
2025-10-16T06:44:51.050545+00:00,7.525000,-0.042560,
2025-10-16T06:44:51.055545+00:00,7.530000,-0.057000,
2025-10-16T06:44:51.060545+00:00,7.535000,-0.061560,
2025-10-16T06:44:51.065545+00:00,7.540000,-0.052820,
2025-10-16T06:44:51.070545+00:00,7.545000,-0.039520,
2025-10-16T06:44:51.075545+00:00,7.550000,-0.036860,
2025-10-16T06:44:51.080545+00:00,7.555000,-0.046740,
2025-10-16T06:44:51.085545+00:00,7.560000,-0.057760,
2025-10-16T06:44:51.090545+00:00,7.565000,-0.055860,
2025-10-16T06:44:51.095545+00:00,7.570000,-0.045980,
2025-10-16T06:44:51.100545+00:00,7.575000,-0.042180,
2025-10-16T06:44:51.105545+00:00,7.580000,-0.051680,
2025-10-16T06:44:51.110545+00:00,7.585000,-0.061940,
2025-10-16T06:44:51.115545+00:00,7.590000,-0.060800,
2025-10-16T06:44:51.120545+00:00,7.595000,-0.045220,
2025-10-16T06:44:51.125545+00:00,7.600000,-0.021280,
2025-10-16T06:44:51.130545+00:00,7.605000,-0.006840,
2025-10-16T06:44:51.135545+00:00,7.610000,-0.020900,
2025-10-16T06:44:51.140545+00:00,7.615000,-0.055100,
2025-10-16T06:44:51.145545+00:00,7.620000,-0.072580,
2025-10-16T06:44:51.150545+00:00,7.625000,-0.061180,
2025-10-16T06:44:51.155545+00:00,7.630000,-0.039900,
2025-10-16T06:44:51.160545+00:00,7.635000,-0.035720,
2025-10-16T06:44:51.165545+00:00,7.640000,-0.049020,
2025-10-16T06:44:51.170545+00:00,7.645000,-0.060420,
2025-10-16T06:44:51.175545+00:00,7.650000,-0.053200,
2025-10-16T06:44:51.180545+00:00,7.655000,-0.030020,
2025-10-16T06:44:51.185545+00:00,7.660000,-0.015200,
2025-10-16T06:44:51.190545+00:00,7.665000,-0.022800,
2025-10-16T06:44:51.195545+00:00,7.670000,-0.040660,
2025-10-16T06:44:51.200545+00:00,7.675000,-0.043320,
2025-10-16T06:44:51.205545+00:00,7.680000,-0.026220,
2025-10-16T06:44:51.210545+00:00,7.685000,-0.011020,
2025-10-16T06:44:51.215545+00:00,7.690000,-0.013300,
2025-10-16T06:44:51.220545+00:00,7.695000,-0.032680,
2025-10-16T06:44:51.225545+00:00,7.700000,-0.048260,
2025-10-16T06:44:51.230545+00:00,7.705000,-0.039520,
2025-10-16T06:44:51.235545+00:00,7.710000,-0.019760,
2025-10-16T06:44:51.240545+00:00,7.715000,-0.012920,
2025-10-16T06:44:51.245545+00:00,7.720000,-0.021660,
2025-10-16T06:44:51.250545+00:00,7.725000,-0.036860,
2025-10-16T06:44:51.255545+00:00,7.730000,-0.046740,
2025-10-16T06:44:51.260545+00:00,7.735000,-0.045600,
2025-10-16T06:44:51.265545+00:00,7.740000,-0.039520,
2025-10-16T06:44:51.270545+00:00,7.745000,-0.042560,
2025-10-16T06:44:51.275545+00:00,7.750000,-0.052820,
2025-10-16T06:44:51.280545+00:00,7.755000,-0.052440,
2025-10-16T06:44:51.285545+00:00,7.760000,-0.036480,
2025-10-16T06:44:51.290545+00:00,7.765000,-0.019380,
2025-10-16T06:44:51.295545+00:00,7.770000,-0.015200,
2025-10-16T06:44:51.300545+00:00,7.775000,-0.019760,
2025-10-16T06:44:51.305545+00:00,7.780000,-0.023180,
2025-10-16T06:44:51.310545+00:00,7.785000,-0.024320,
2025-10-16T06:44:51.315545+00:00,7.790000,-0.029260,
2025-10-16T06:44:51.320545+00:00,7.795000,-0.041040,
2025-10-16T06:44:51.325545+00:00,7.800000,-0.049780,
2025-10-16T06:44:51.330545+00:00,7.805000,-0.053200,
2025-10-16T06:44:51.335545+00:00,7.810000,-0.052440,
2025-10-16T06:44:51.340545+00:00,7.815000,-0.042940,
2025-10-16T06:44:51.345545+00:00,7.820000,-0.027740,
2025-10-16T06:44:51.350545+00:00,7.825000,-0.026220,
2025-10-16T06:44:51.355545+00:00,7.830000,-0.036860,
2025-10-16T06:44:51.360545+00:00,7.835000,-0.035720,
2025-10-16T06:44:51.365545+00:00,7.840000,-0.023560,
2025-10-16T06:44:51.370545+00:00,7.845000,-0.029640,
2025-10-16T06:44:51.375545+00:00,7.850000,-0.044460,
2025-10-16T06:44:51.380545+00:00,7.855000,-0.040660,
2025-10-16T06:44:51.385545+00:00,7.860000,-0.022800,
2025-10-16T06:44:51.390545+00:00,7.865000,-0.022800,
2025-10-16T06:44:51.395545+00:00,7.870000,-0.038000,
2025-10-16T06:44:51.400545+00:00,7.875000,-0.043700,
2025-10-16T06:44:51.405545+00:00,7.880000,-0.027740,
2025-10-16T06:44:51.410545+00:00,7.885000,-0.012920,
2025-10-16T06:44:51.415545+00:00,7.890000,-0.020520,
2025-10-16T06:44:51.420545+00:00,7.895000,-0.038000,
2025-10-16T06:44:51.425545+00:00,7.900000,-0.036100,
2025-10-16T06:44:51.430545+00:00,7.905000,-0.023560,
2025-10-16T06:44:51.435545+00:00,7.910000,-0.022040,
2025-10-16T06:44:51.440545+00:00,7.915000,-0.042180,
2025-10-16T06:44:51.445545+00:00,7.920000,-0.064220,
2025-10-16T06:44:51.450545+00:00,7.925000,-0.065360,
2025-10-16T06:44:51.455545+00:00,7.930000,-0.042940,
2025-10-16T06:44:51.460545+00:00,7.935000,-0.026980,
2025-10-16T06:44:51.465545+00:00,7.940000,-0.030780,
2025-10-16T06:44:51.470545+00:00,7.945000,-0.037240,
2025-10-16T06:44:51.475545+00:00,7.950000,-0.032680,
2025-10-16T06:44:51.480545+00:00,7.955000,-0.024700,
2025-10-16T06:44:51.485545+00:00,7.960000,-0.025460,
2025-10-16T06:44:51.490545+00:00,7.965000,-0.031540,
2025-10-16T06:44:51.495545+00:00,7.970000,-0.030020,
2025-10-16T06:44:51.500545+00:00,7.975000,-0.030780,
2025-10-16T06:44:51.505545+00:00,7.980000,-0.044080,
2025-10-16T06:44:51.510545+00:00,7.985000,-0.053580,
2025-10-16T06:44:51.515545+00:00,7.990000,-0.054720,
2025-10-16T06:44:51.520545+00:00,7.995000,-0.055860,
2025-10-16T06:44:51.525545+00:00,8.000000,-0.062700,
2025-10-16T06:44:51.530545+00:00,8.005000,-0.062700,
2025-10-16T06:44:51.535545+00:00,8.010000,-0.048260,
2025-10-16T06:44:51.540545+00:00,8.015000,-0.031920,
2025-10-16T06:44:51.545545+00:00,8.020000,-0.024700,
2025-10-16T06:44:51.550545+00:00,8.025000,-0.024320,
2025-10-16T06:44:51.555545+00:00,8.030000,-0.022420,
2025-10-16T06:44:51.560545+00:00,8.035000,-0.025840,
2025-10-16T06:44:51.565545+00:00,8.040000,-0.046360,
2025-10-16T06:44:51.570545+00:00,8.045000,-0.066120,
2025-10-16T06:44:51.575545+00:00,8.050000,-0.065360,
2025-10-16T06:44:51.580545+00:00,8.055000,-0.048260,
2025-10-16T06:44:51.585545+00:00,8.060000,-0.038380,
2025-10-16T06:44:51.590545+00:00,8.065000,-0.042180,
2025-10-16T06:44:51.595545+00:00,8.070000,-0.044840,
2025-10-16T06:44:51.600545+00:00,8.075000,-0.036860,
2025-10-16T06:44:51.605545+00:00,8.080000,-0.036480,
2025-10-16T06:44:51.610545+00:00,8.085000,-0.045980,
2025-10-16T06:44:51.615545+00:00,8.090000,-0.045600,
2025-10-16T06:44:51.620545+00:00,8.095000,-0.032680,
2025-10-16T06:44:51.625545+00:00,8.100000,-0.020520,
2025-10-16T06:44:51.630545+00:00,8.105000,-0.013680,
2025-10-16T06:44:51.635545+00:00,8.110000,-0.006080,
2025-10-16T06:44:51.640545+00:00,8.115000,-0.004180,
2025-10-16T06:44:51.645545+00:00,8.120000,-0.014060,
2025-10-16T06:44:51.650545+00:00,8.125000,-0.035720,
2025-10-16T06:44:51.655545+00:00,8.130000,-0.053960,
2025-10-16T06:44:51.660545+00:00,8.135000,-0.050920,
2025-10-16T06:44:51.665545+00:00,8.140000,-0.040660,
2025-10-16T06:44:51.670545+00:00,8.145000,-0.038760,
2025-10-16T06:44:51.675545+00:00,8.150000,-0.036860,
2025-10-16T06:44:51.680545+00:00,8.155000,-0.033060,
2025-10-16T06:44:51.685545+00:00,8.160000,-0.035720,
2025-10-16T06:44:51.690545+00:00,8.165000,-0.054720,
2025-10-16T06:44:51.695545+00:00,8.170000,-0.074860,
2025-10-16T06:44:51.700545+00:00,8.175000,-0.076000,
2025-10-16T06:44:51.705545+00:00,8.180000,-0.057380,
2025-10-16T06:44:51.710545+00:00,8.185000,-0.038000,
2025-10-16T06:44:51.715545+00:00,8.190000,-0.033060,
2025-10-16T06:44:51.720545+00:00,8.195000,-0.044460,
2025-10-16T06:44:51.725545+00:00,8.200000,-0.061180,
2025-10-16T06:44:51.730545+00:00,8.205000,-0.068400,
2025-10-16T06:44:51.735545+00:00,8.210000,-0.059280,
2025-10-16T06:44:51.740545+00:00,8.215000,-0.046740,
2025-10-16T06:44:51.745545+00:00,8.220000,-0.048260,
2025-10-16T06:44:51.750545+00:00,8.225000,-0.062700,
2025-10-16T06:44:51.755545+00:00,8.230000,-0.064600,
2025-10-16T06:44:51.760545+00:00,8.235000,-0.042560,
2025-10-16T06:44:51.765545+00:00,8.240000,-0.026600,
2025-10-16T06:44:51.770545+00:00,8.245000,-0.039520,
2025-10-16T06:44:51.775545+00:00,8.250000,-0.064600,
2025-10-16T06:44:51.780545+00:00,8.255000,-0.059280,
2025-10-16T06:44:51.785545+00:00,8.260000,-0.028500,
2025-10-16T06:44:51.790545+00:00,8.265000,-0.004180,
2025-10-16T06:44:51.795545+00:00,8.270000,-0.006080,
2025-10-16T06:44:51.800545+00:00,8.275000,-0.026980,
2025-10-16T06:44:51.805545+00:00,8.280000,-0.041040,
2025-10-16T06:44:51.810545+00:00,8.285000,-0.033820,
2025-10-16T06:44:51.815545+00:00,8.290000,-0.015200,
2025-10-16T06:44:51.820545+00:00,8.295000,-0.013300,
2025-10-16T06:44:51.825545+00:00,8.300000,-0.037240,
2025-10-16T06:44:51.830545+00:00,8.305000,-0.062700,
2025-10-16T06:44:51.835545+00:00,8.310000,-0.065360,
2025-10-16T06:44:51.840545+00:00,8.315000,-0.046740,
2025-10-16T06:44:51.845545+00:00,8.320000,-0.029640,
2025-10-16T06:44:51.850545+00:00,8.325000,-0.031920,
2025-10-16T06:44:51.855545+00:00,8.330000,-0.052440,
2025-10-16T06:44:51.860545+00:00,8.335000,-0.073720,
2025-10-16T06:44:51.865545+00:00,8.340000,-0.075620,
2025-10-16T06:44:51.870545+00:00,8.345000,-0.057000,
2025-10-16T06:44:51.875545+00:00,8.350000,-0.031160,
2025-10-16T06:44:51.880545+00:00,8.355000,-0.021660,
2025-10-16T06:44:51.885545+00:00,8.360000,-0.032300,
2025-10-16T06:44:51.890545+00:00,8.365000,-0.043700,
2025-10-16T06:44:51.895545+00:00,8.370000,-0.044460,
2025-10-16T06:44:51.900545+00:00,8.375000,-0.045600,
2025-10-16T06:44:51.905545+00:00,8.380000,-0.052820,
2025-10-16T06:44:51.910545+00:00,8.385000,-0.048640,
2025-10-16T06:44:51.915545+00:00,8.390000,-0.031160,
2025-10-16T06:44:51.920545+00:00,8.395000,-0.025460,
2025-10-16T06:44:51.925545+00:00,8.400000,-0.039520,
2025-10-16T06:44:51.930545+00:00,8.405000,-0.051680,
2025-10-16T06:44:51.935545+00:00,8.410000,-0.044460,
2025-10-16T06:44:51.940545+00:00,8.415000,-0.025080,
2025-10-16T06:44:51.945545+00:00,8.420000,-0.022420,
2025-10-16T06:44:51.950545+00:00,8.425000,-0.036480,
2025-10-16T06:44:51.955545+00:00,8.430000,-0.054720,
2025-10-16T06:44:51.960545+00:00,8.435000,-0.066880,
2025-10-16T06:44:51.965545+00:00,8.440000,-0.068400,
2025-10-16T06:44:51.970545+00:00,8.445000,-0.053960,
2025-10-16T06:44:51.975545+00:00,8.450000,-0.029260,
2025-10-16T06:44:51.980545+00:00,8.455000,-0.014440,
2025-10-16T06:44:51.985545+00:00,8.460000,-0.021660,
2025-10-16T06:44:51.990545+00:00,8.465000,-0.039520,
2025-10-16T06:44:51.995545+00:00,8.470000,-0.049400,
2025-10-16T06:44:52.000545+00:00,8.475000,-0.043320,
2025-10-16T06:44:52.005545+00:00,8.480000,-0.029260,
2025-10-16T06:44:52.010545+00:00,8.485000,-0.016720,
2025-10-16T06:44:52.015545+00:00,8.490000,-0.011780,
2025-10-16T06:44:52.020545+00:00,8.495000,-0.021660,
2025-10-16T06:44:52.025545+00:00,8.500000,-0.036860,
2025-10-16T06:44:52.030545+00:00,8.505000,-0.038000,
2025-10-16T06:44:52.035545+00:00,8.510000,-0.023180,
2025-10-16T06:44:52.040545+00:00,8.515000,-0.017480,
2025-10-16T06:44:52.045545+00:00,8.520000,-0.032300,
2025-10-16T06:44:52.050545+00:00,8.525000,-0.047880,
2025-10-16T06:44:52.055545+00:00,8.530000,-0.044840,
2025-10-16T06:44:52.060545+00:00,8.535000,-0.033820,
2025-10-16T06:44:52.065545+00:00,8.540000,-0.029640,
2025-10-16T06:44:52.070545+00:00,8.545000,-0.037620,
2025-10-16T06:44:52.075545+00:00,8.550000,-0.047500,
2025-10-16T06:44:52.080545+00:00,8.555000,-0.049400,
2025-10-16T06:44:52.085545+00:00,8.560000,-0.046740,
2025-10-16T06:44:52.090545+00:00,8.565000,-0.040660,
2025-10-16T06:44:52.095545+00:00,8.570000,-0.035720,
2025-10-16T06:44:52.100545+00:00,8.575000,-0.035340,
2025-10-16T06:44:52.105545+00:00,8.580000,-0.036480,
2025-10-16T06:44:52.110545+00:00,8.585000,-0.032300,
2025-10-16T06:44:52.115545+00:00,8.590000,-0.023180,
2025-10-16T06:44:52.120545+00:00,8.595000,-0.020140,
2025-10-16T06:44:52.125545+00:00,8.600000,-0.023560,
2025-10-16T06:44:52.130545+00:00,8.605000,-0.028500,
2025-10-16T06:44:52.135545+00:00,8.610000,-0.035720,
2025-10-16T06:44:52.140545+00:00,8.615000,-0.048260,
2025-10-16T06:44:52.145545+00:00,8.620000,-0.059660,
2025-10-16T06:44:52.150545+00:00,8.625000,-0.064600,
2025-10-16T06:44:52.155545+00:00,8.630000,-0.067260,
2025-10-16T06:44:52.160545+00:00,8.635000,-0.063460,
2025-10-16T06:44:52.165545+00:00,8.640000,-0.048260,
2025-10-16T06:44:52.170545+00:00,8.645000,-0.034200,
2025-10-16T06:44:52.175545+00:00,8.650000,-0.034960,
2025-10-16T06:44:52.180545+00:00,8.655000,-0.049400,
2025-10-16T06:44:52.185545+00:00,8.660000,-0.057380,
2025-10-16T06:44:52.190545+00:00,8.665000,-0.043320,
2025-10-16T06:44:52.195545+00:00,8.670000,-0.025080,
2025-10-16T06:44:52.200545+00:00,8.675000,-0.026220,
2025-10-16T06:44:52.205545+00:00,8.680000,-0.044080,
2025-10-16T06:44:52.210545+00:00,8.685000,-0.056240,
2025-10-16T06:44:52.215545+00:00,8.690000,-0.051680,
2025-10-16T06:44:52.220545+00:00,8.695000,-0.048260,
2025-10-16T06:44:52.225545+00:00,8.700000,-0.054720,
2025-10-16T06:44:52.230545+00:00,8.705000,-0.058520,
2025-10-16T06:44:52.235545+00:00,8.710000,-0.048640,
2025-10-16T06:44:52.240545+00:00,8.715000,-0.033440,
2025-10-16T06:44:52.245545+00:00,8.720000,-0.025460,
2025-10-16T06:44:52.250545+00:00,8.725000,-0.025460,
2025-10-16T06:44:52.255545+00:00,8.730000,-0.030780,
2025-10-16T06:44:52.260545+00:00,8.735000,-0.035340,
2025-10-16T06:44:52.265545+00:00,8.740000,-0.034200,
2025-10-16T06:44:52.270545+00:00,8.745000,-0.023940,
2025-10-16T06:44:52.275545+00:00,8.750000,-0.015960,
2025-10-16T06:44:52.280545+00:00,8.755000,-0.019760,
2025-10-16T06:44:52.285545+00:00,8.760000,-0.032680,
2025-10-16T06:44:52.290545+00:00,8.765000,-0.042940,
2025-10-16T06:44:52.295545+00:00,8.770000,-0.047120,
2025-10-16T06:44:52.300545+00:00,8.775000,-0.047120,
2025-10-16T06:44:52.305545+00:00,8.780000,-0.042180,
2025-10-16T06:44:52.310545+00:00,8.785000,-0.037620,
2025-10-16T06:44:52.315545+00:00,8.790000,-0.039520,
2025-10-16T06:44:52.320545+00:00,8.795000,-0.041420,
2025-10-16T06:44:52.325545+00:00,8.800000,-0.029260,
2025-10-16T06:44:52.330545+00:00,8.805000,-0.006840,
2025-10-16T06:44:52.335545+00:00,8.810000,-0.004940,
2025-10-16T06:44:52.340545+00:00,8.815000,-0.033820,
2025-10-16T06:44:52.345545+00:00,8.820000,-0.061180,
2025-10-16T06:44:52.350545+00:00,8.825000,-0.057380,
2025-10-16T06:44:52.355545+00:00,8.830000,-0.035340,
2025-10-16T06:44:52.360545+00:00,8.835000,-0.031160,
2025-10-16T06:44:52.365545+00:00,8.840000,-0.042180,
2025-10-16T06:44:52.370545+00:00,8.845000,-0.047880,
2025-10-16T06:44:52.375545+00:00,8.850000,-0.037620,
2025-10-16T06:44:52.380545+00:00,8.855000,-0.024320,
2025-10-16T06:44:52.385545+00:00,8.860000,-0.023180,
2025-10-16T06:44:52.390545+00:00,8.865000,-0.027740,
2025-10-16T06:44:52.395545+00:00,8.870000,-0.032680,
2025-10-16T06:44:52.400545+00:00,8.875000,-0.037240,
2025-10-16T06:44:52.405545+00:00,8.880000,-0.046740,
2025-10-16T06:44:52.410545+00:00,8.885000,-0.053960,
2025-10-16T06:44:52.415545+00:00,8.890000,-0.045980,
2025-10-16T06:44:52.420545+00:00,8.895000,-0.026980,
2025-10-16T06:44:52.425545+00:00,8.900000,-0.014060,
2025-10-16T06:44:52.430545+00:00,8.905000,-0.017100,
2025-10-16T06:44:52.435545+00:00,8.910000,-0.030020,
2025-10-16T06:44:52.440545+00:00,8.915000,-0.053960,
2025-10-16T06:44:52.445545+00:00,8.920000,-0.074860,
2025-10-16T06:44:52.450545+00:00,8.925000,-0.075240,
2025-10-16T06:44:52.455545+00:00,8.930000,-0.054340,
2025-10-16T06:44:52.460545+00:00,8.935000,-0.037620,
2025-10-16T06:44:52.465545+00:00,8.940000,-0.042180,
2025-10-16T06:44:52.470545+00:00,8.945000,-0.054720,
2025-10-16T06:44:52.475545+00:00,8.950000,-0.054340,
2025-10-16T06:44:52.480545+00:00,8.955000,-0.045600,
2025-10-16T06:44:52.485545+00:00,8.960000,-0.045600,
2025-10-16T06:44:52.490545+00:00,8.965000,-0.053200,
2025-10-16T06:44:52.495545+00:00,8.970000,-0.046740,
2025-10-16T06:44:52.500545+00:00,8.975000,-0.034200,
2025-10-16T06:44:52.505545+00:00,8.980000,-0.040280,
2025-10-16T06:44:52.510545+00:00,8.985000,-0.056240,
2025-10-16T06:44:52.515545+00:00,8.990000,-0.061560,
2025-10-16T06:44:52.520545+00:00,8.995000,-0.063080,
2025-10-16T06:44:52.525545+00:00,9.000000,-0.071060,
2025-10-16T06:44:52.530545+00:00,9.005000,-0.074860,
2025-10-16T06:44:52.535545+00:00,9.010000,-0.068400,
2025-10-16T06:44:52.540545+00:00,9.015000,-0.060420,
2025-10-16T06:44:52.545545+00:00,9.020000,-0.052820,
2025-10-16T06:44:52.550545+00:00,9.025000,-0.042180,
2025-10-16T06:44:52.555545+00:00,9.030000,-0.034580,
2025-10-16T06:44:52.560545+00:00,9.035000,-0.029260,
2025-10-16T06:44:52.565545+00:00,9.040000,-0.026220,
2025-10-16T06:44:52.570545+00:00,9.045000,-0.023180,
2025-10-16T06:44:52.575545+00:00,9.050000,-0.026980,
2025-10-16T06:44:52.580545+00:00,9.055000,-0.046740,
2025-10-16T06:44:52.585545+00:00,9.060000,-0.068020,
2025-10-16T06:44:52.590545+00:00,9.065000,-0.066120,
2025-10-16T06:44:52.595545+00:00,9.070000,-0.040280,
2025-10-16T06:44:52.600545+00:00,9.075000,-0.019000,
2025-10-16T06:44:52.605545+00:00,9.080000,-0.022420,
2025-10-16T06:44:52.610545+00:00,9.085000,-0.030020,
2025-10-16T06:44:52.615545+00:00,9.090000,-0.032300,
2025-10-16T06:44:52.620545+00:00,9.095000,-0.031920,
2025-10-16T06:44:52.625545+00:00,9.100000,-0.036100,
2025-10-16T06:44:52.630545+00:00,9.105000,-0.039520,
2025-10-16T06:44:52.635545+00:00,9.110000,-0.041040,
2025-10-16T06:44:52.640545+00:00,9.115000,-0.041420,
2025-10-16T06:44:52.645545+00:00,9.120000,-0.037240,
2025-10-16T06:44:52.650545+00:00,9.125000,-0.037620,
2025-10-16T06:44:52.655545+00:00,9.130000,-0.039900,
2025-10-16T06:44:52.660545+00:00,9.135000,-0.030780,
2025-10-16T06:44:52.665545+00:00,9.140000,-0.014440,
2025-10-16T06:44:52.670545+00:00,9.145000,-0.004940,
2025-10-16T06:44:52.675545+00:00,9.150000,-0.013300,
2025-10-16T06:44:52.680545+00:00,9.155000,-0.034580,
2025-10-16T06:44:52.685545+00:00,9.160000,-0.045600,
2025-10-16T06:44:52.690545+00:00,9.165000,-0.038760,
2025-10-16T06:44:52.695545+00:00,9.170000,-0.025460,
2025-10-16T06:44:52.700545+00:00,9.175000,-0.011780,
2025-10-16T06:44:52.705545+00:00,9.180000,-0.008740,
2025-10-16T06:44:52.710545+00:00,9.185000,-0.027740,
2025-10-16T06:44:52.715545+00:00,9.190000,-0.060420,
2025-10-16T06:44:52.720545+00:00,9.195000,-0.081700,
2025-10-16T06:44:52.725545+00:00,9.200000,-0.069160,
2025-10-16T06:44:52.730545+00:00,9.205000,-0.038380,
2025-10-16T06:44:52.735545+00:00,9.210000,-0.023560,
2025-10-16T06:44:52.740545+00:00,9.215000,-0.034580,
2025-10-16T06:44:52.745545+00:00,9.220000,-0.044460,
2025-10-16T06:44:52.750545+00:00,9.225000,-0.034200,
2025-10-16T06:44:52.755545+00:00,9.230000,-0.023180,
2025-10-16T06:44:52.760545+00:00,9.235000,-0.031540,
2025-10-16T06:44:52.765545+00:00,9.240000,-0.048260,
2025-10-16T06:44:52.770545+00:00,9.245000,-0.057380,
2025-10-16T06:44:52.775545+00:00,9.250000,-0.052060,
2025-10-16T06:44:52.780545+00:00,9.255000,-0.041040,
2025-10-16T06:44:52.785545+00:00,9.260000,-0.035340,
2025-10-16T06:44:52.790545+00:00,9.265000,-0.039520,
2025-10-16T06:44:52.795545+00:00,9.270000,-0.042180,
2025-10-16T06:44:52.800545+00:00,9.275000,-0.044460,
2025-10-16T06:44:52.805545+00:00,9.280000,-0.038760,
2025-10-16T06:44:52.810545+00:00,9.285000,-0.025840,
2025-10-16T06:44:52.815545+00:00,9.290000,-0.025840,
2025-10-16T06:44:52.820545+00:00,9.295000,-0.048640,
2025-10-16T06:44:52.825545+00:00,9.300000,-0.068400,
2025-10-16T06:44:52.830545+00:00,9.305000,-0.057000,
2025-10-16T06:44:52.835545+00:00,9.310000,-0.038760,
2025-10-16T06:44:52.840545+00:00,9.315000,-0.037240,
2025-10-16T06:44:52.845545+00:00,9.320000,-0.047500,
2025-10-16T06:44:52.850545+00:00,9.325000,-0.047500,
2025-10-16T06:44:52.855545+00:00,9.330000,-0.038380,
2025-10-16T06:44:52.860545+00:00,9.335000,-0.032680,
2025-10-16T06:44:52.865545+00:00,9.340000,-0.031920,
2025-10-16T06:44:52.870545+00:00,9.345000,-0.027360,
2025-10-16T06:44:52.875545+00:00,9.350000,-0.022420,
2025-10-16T06:44:52.880545+00:00,9.355000,-0.025080,
2025-10-16T06:44:52.885545+00:00,9.360000,-0.026220,
2025-10-16T06:44:52.890545+00:00,9.365000,-0.017100,
2025-10-16T06:44:52.895545+00:00,9.370000,-0.008740,
2025-10-16T06:44:52.900545+00:00,9.375000,-0.016340,
2025-10-16T06:44:52.905545+00:00,9.380000,-0.033060,
2025-10-16T06:44:52.910545+00:00,9.385000,-0.039900,
2025-10-16T06:44:52.915545+00:00,9.390000,-0.039140,
2025-10-16T06:44:52.920545+00:00,9.395000,-0.042180,
2025-10-16T06:44:52.925545+00:00,9.400000,-0.051680,
2025-10-16T06:44:52.930545+00:00,9.405000,-0.053960,
2025-10-16T06:44:52.935545+00:00,9.410000,-0.044840,
2025-10-16T06:44:52.940545+00:00,9.415000,-0.035340,
2025-10-16T06:44:52.945545+00:00,9.420000,-0.031920,
2025-10-16T06:44:52.950545+00:00,9.425000,-0.036860,
2025-10-16T06:44:52.955545+00:00,9.430000,-0.048260,
2025-10-16T06:44:52.960545+00:00,9.435000,-0.056240,
2025-10-16T06:44:52.965545+00:00,9.440000,-0.055480,
2025-10-16T06:44:52.970545+00:00,9.445000,-0.044080,
2025-10-16T06:44:52.975545+00:00,9.450000,-0.030400,
2025-10-16T06:44:52.980545+00:00,9.455000,-0.026980,
2025-10-16T06:44:52.985545+00:00,9.460000,-0.041800,
2025-10-16T06:44:52.990545+00:00,9.465000,-0.066500,
2025-10-16T06:44:52.995545+00:00,9.470000,-0.079800,
2025-10-16T06:44:53.000545+00:00,9.475000,-0.072200,
2025-10-16T06:44:53.005545+00:00,9.480000,-0.052820,
2025-10-16T06:44:53.010545+00:00,9.485000,-0.036860,
2025-10-16T06:44:53.015545+00:00,9.490000,-0.036100,
2025-10-16T06:44:53.020545+00:00,9.495000,-0.044460,
2025-10-16T06:44:53.025545+00:00,9.500000,-0.050920,
2025-10-16T06:44:53.030545+00:00,9.505000,-0.046360,
2025-10-16T06:44:53.035545+00:00,9.510000,-0.041420,
2025-10-16T06:44:53.040545+00:00,9.515000,-0.042940,
2025-10-16T06:44:53.045545+00:00,9.520000,-0.047880,
2025-10-16T06:44:53.050545+00:00,9.525000,-0.057000,
2025-10-16T06:44:53.055545+00:00,9.530000,-0.068400,
2025-10-16T06:44:53.060545+00:00,9.535000,-0.074100,
2025-10-16T06:44:53.065545+00:00,9.540000,-0.064220,
2025-10-16T06:44:53.070545+00:00,9.545000,-0.047120,
2025-10-16T06:44:53.075545+00:00,9.550000,-0.040280,
2025-10-16T06:44:53.080545+00:00,9.555000,-0.047120,
2025-10-16T06:44:53.085545+00:00,9.560000,-0.049020,
2025-10-16T06:44:53.090545+00:00,9.565000,-0.024320,
2025-10-16T06:44:53.095545+00:00,9.570000,0.009880,
2025-10-16T06:44:53.100545+00:00,9.575000,0.015580,
2025-10-16T06:44:53.105545+00:00,9.580000,-0.009880,
2025-10-16T06:44:53.110545+00:00,9.585000,-0.035340,
2025-10-16T06:44:53.115545+00:00,9.590000,-0.045220,
2025-10-16T06:44:53.120545+00:00,9.595000,-0.054340,
2025-10-16T06:44:53.125545+00:00,9.600000,-0.058520,
2025-10-16T06:44:53.130545+00:00,9.605000,-0.043320,
2025-10-16T06:44:53.135545+00:00,9.610000,-0.027740,
2025-10-16T06:44:53.140545+00:00,9.615000,-0.028500,
2025-10-16T06:44:53.145545+00:00,9.620000,-0.040280,
2025-10-16T06:44:53.150545+00:00,9.625000,-0.044460,
2025-10-16T06:44:53.155545+00:00,9.630000,-0.041420,
2025-10-16T06:44:53.160545+00:00,9.635000,-0.042560,
2025-10-16T06:44:53.165545+00:00,9.640000,-0.046360,
2025-10-16T06:44:53.170545+00:00,9.645000,-0.043320,
2025-10-16T06:44:53.175545+00:00,9.650000,-0.042180,
2025-10-16T06:44:53.180545+00:00,9.655000,-0.050920,
2025-10-16T06:44:53.185545+00:00,9.660000,-0.059660,
2025-10-16T06:44:53.190545+00:00,9.665000,-0.050920,
2025-10-16T06:44:53.195545+00:00,9.670000,-0.033820,
2025-10-16T06:44:53.200545+00:00,9.675000,-0.035340,
2025-10-16T06:44:53.205545+00:00,9.680000,-0.052060,
2025-10-16T06:44:53.210545+00:00,9.685000,-0.053960,
2025-10-16T06:44:53.215545+00:00,9.690000,-0.038760,
2025-10-16T06:44:53.220545+00:00,9.695000,-0.030020,
2025-10-16T06:44:53.225545+00:00,9.700000,-0.044460,
2025-10-16T06:44:53.230545+00:00,9.705000,-0.064980,
2025-10-16T06:44:53.235545+00:00,9.710000,-0.065360,
2025-10-16T06:44:53.240545+00:00,9.715000,-0.046360,
2025-10-16T06:44:53.245545+00:00,9.720000,-0.034200,
2025-10-16T06:44:53.250545+00:00,9.725000,-0.042180,
2025-10-16T06:44:53.255545+00:00,9.730000,-0.051680,
2025-10-16T06:44:53.260545+00:00,9.735000,-0.042560,
2025-10-16T06:44:53.265545+00:00,9.740000,-0.027740,
2025-10-16T06:44:53.270545+00:00,9.745000,-0.033440,
2025-10-16T06:44:53.275545+00:00,9.750000,-0.044460,
2025-10-16T06:44:53.280545+00:00,9.755000,-0.034200,
2025-10-16T06:44:53.285545+00:00,9.760000,-0.012160,
2025-10-16T06:44:53.290545+00:00,9.765000,-0.008740,
2025-10-16T06:44:53.295545+00:00,9.770000,-0.030020,
2025-10-16T06:44:53.300545+00:00,9.775000,-0.042180,
2025-10-16T06:44:53.305545+00:00,9.780000,-0.028500,
2025-10-16T06:44:53.310545+00:00,9.785000,-0.011020,
2025-10-16T06:44:53.315545+00:00,9.790000,-0.020140,
2025-10-16T06:44:53.320545+00:00,9.795000,-0.040660,
2025-10-16T06:44:53.325545+00:00,9.800000,-0.041420,
2025-10-16T06:44:53.330545+00:00,9.805000,-0.022420,
2025-10-16T06:44:53.335545+00:00,9.810000,-0.019380,
2025-10-16T06:44:53.340545+00:00,9.815000,-0.036100,
2025-10-16T06:44:53.345545+00:00,9.820000,-0.052060,
2025-10-16T06:44:53.350545+00:00,9.825000,-0.047120,
2025-10-16T06:44:53.355545+00:00,9.830000,-0.036480,
2025-10-16T06:44:53.360545+00:00,9.835000,-0.039520,
2025-10-16T06:44:53.365545+00:00,9.840000,-0.044840,
2025-10-16T06:44:53.370545+00:00,9.845000,-0.036480,
2025-10-16T06:44:53.375545+00:00,9.850000,-0.022420,
2025-10-16T06:44:53.380545+00:00,9.855000,-0.017860,
2025-10-16T06:44:53.385545+00:00,9.860000,-0.025460,
2025-10-16T06:44:53.390545+00:00,9.865000,-0.026980,
2025-10-16T06:44:53.395545+00:00,9.870000,-0.011400,
2025-10-16T06:44:53.400545+00:00,9.875000,0.003800,
2025-10-16T06:44:53.405545+00:00,9.880000,-0.000760,
2025-10-16T06:44:53.410545+00:00,9.885000,-0.014440,
2025-10-16T06:44:53.415545+00:00,9.890000,-0.021660,
2025-10-16T06:44:53.420545+00:00,9.895000,-0.024700,
2025-10-16T06:44:53.425545+00:00,9.900000,-0.031920,
2025-10-16T06:44:53.430545+00:00,9.905000,-0.043320,
2025-10-16T06:44:53.435545+00:00,9.910000,-0.051680,
2025-10-16T06:44:53.440545+00:00,9.915000,-0.048640,
2025-10-16T06:44:53.445545+00:00,9.920000,-0.039900,
2025-10-16T06:44:53.450545+00:00,9.925000,-0.033060,
2025-10-16T06:44:53.455545+00:00,9.930000,-0.031160,
2025-10-16T06:44:53.460545+00:00,9.935000,-0.023940,
2025-10-16T06:44:53.465545+00:00,9.940000,-0.010260,
2025-10-16T06:44:53.470545+00:00,9.945000,-0.006840,
2025-10-16T06:44:53.475545+00:00,9.950000,-0.024700,
2025-10-16T06:44:53.480545+00:00,9.955000,-0.056620,
2025-10-16T06:44:53.485545+00:00,9.960000,-0.077900,
2025-10-16T06:44:53.490545+00:00,9.965000,-0.068020,
2025-10-16T06:44:53.495545+00:00,9.970000,-0.042560,
2025-10-16T06:44:53.500545+00:00,9.975000,-0.022420,
2025-10-16T06:44:53.505545+00:00,9.980000,-0.012920,
2025-10-16T06:44:53.510545+00:00,9.985000,-0.010640,
2025-10-16T06:44:53.515545+00:00,9.990000,-0.017100,
2025-10-16T06:44:53.520545+00:00,9.995000,-0.030020,
2025-10-16T06:44:53.525545+00:00,10.000000,-0.032300,
2025-10-16T06:44:53.530545+00:00,10.005000,-0.024320,
2025-10-16T06:44:53.535545+00:00,10.010000,-0.017100,
2025-10-16T06:44:53.540545+00:00,10.015000,-0.023560,
2025-10-16T06:44:53.545545+00:00,10.020000,-0.036860,
2025-10-16T06:44:53.550545+00:00,10.025000,-0.038000,COUNT_START|trial=1
2025-10-16T06:44:53.555545+00:00,10.030000,-0.030780,
2025-10-16T06:44:53.560545+00:00,10.035000,-0.033820,
2025-10-16T06:44:53.565545+00:00,10.040000,-0.043700,
2025-10-16T06:44:53.570545+00:00,10.045000,-0.051680,
2025-10-16T06:44:53.575545+00:00,10.050000,-0.050160,
2025-10-16T06:44:53.580545+00:00,10.055000,-0.046740,
2025-10-16T06:44:53.585545+00:00,10.060000,-0.039520,
2025-10-16T06:44:53.590545+00:00,10.065000,-0.031160,
2025-10-16T06:44:53.595545+00:00,10.070000,-0.023180,
2025-10-16T06:44:53.600545+00:00,10.075000,-0.021660,
2025-10-16T06:44:53.605545+00:00,10.080000,-0.028880,
2025-10-16T06:44:53.610545+00:00,10.085000,-0.034200,
2025-10-16T06:44:53.615545+00:00,10.090000,-0.025460,
2025-10-16T06:44:53.620545+00:00,10.095000,-0.016720,
2025-10-16T06:44:53.625545+00:00,10.100000,-0.022420,
2025-10-16T06:44:53.630545+00:00,10.105000,-0.034200,
2025-10-16T06:44:53.635545+00:00,10.110000,-0.035720,
2025-10-16T06:44:53.640545+00:00,10.115000,-0.032680,
2025-10-16T06:44:53.645545+00:00,10.120000,-0.031160,
2025-10-16T06:44:53.650545+00:00,10.125000,-0.034580,
2025-10-16T06:44:53.655545+00:00,10.130000,-0.041420,
2025-10-16T06:44:53.660545+00:00,10.135000,-0.049020,
2025-10-16T06:44:53.665545+00:00,10.140000,-0.053200,
2025-10-16T06:44:53.670545+00:00,10.145000,-0.058140,
2025-10-16T06:44:53.675545+00:00,10.150000,-0.054720,
2025-10-16T06:44:53.680545+00:00,10.155000,-0.038380,
2025-10-16T06:44:53.685545+00:00,10.160000,-0.023940,
2025-10-16T06:44:53.690545+00:00,10.165000,-0.026600,
2025-10-16T06:44:53.695545+00:00,10.170000,-0.037240,
2025-10-16T06:44:53.700545+00:00,10.175000,-0.049780,
2025-10-16T06:44:53.705545+00:00,10.180000,-0.058140,
2025-10-16T06:44:53.710545+00:00,10.185000,-0.052060,
2025-10-16T06:44:53.715545+00:00,10.190000,-0.033060,
2025-10-16T06:44:53.720545+00:00,10.195000,-0.018620,
2025-10-16T06:44:53.725545+00:00,10.200000,-0.018620,
2025-10-16T06:44:53.730545+00:00,10.205000,-0.029640,
2025-10-16T06:44:53.735545+00:00,10.210000,-0.045980,
2025-10-16T06:44:53.740545+00:00,10.215000,-0.058900,
2025-10-16T06:44:53.745545+00:00,10.220000,-0.055480,
2025-10-16T06:44:53.750545+00:00,10.225000,-0.045980,
2025-10-16T06:44:53.755545+00:00,10.230000,-0.044080,
2025-10-16T06:44:53.760545+00:00,10.235000,-0.051300,
2025-10-16T06:44:53.765545+00:00,10.240000,-0.055860,
2025-10-16T06:44:53.770545+00:00,10.245000,-0.052060,
2025-10-16T06:44:53.775545+00:00,10.250000,-0.037240,
2025-10-16T06:44:53.780545+00:00,10.255000,-0.023940,
2025-10-16T06:44:53.785545+00:00,10.260000,-0.020520,
2025-10-16T06:44:53.790545+00:00,10.265000,-0.020140,
2025-10-16T06:44:53.795545+00:00,10.270000,-0.025080,
2025-10-16T06:44:53.800545+00:00,10.275000,-0.043320,
2025-10-16T06:44:53.805545+00:00,10.280000,-0.058520,
2025-10-16T06:44:53.810545+00:00,10.285000,-0.052820,
2025-10-16T06:44:53.815545+00:00,10.290000,-0.041040,
2025-10-16T06:44:53.820545+00:00,10.295000,-0.036480,
2025-10-16T06:44:53.825545+00:00,10.300000,-0.035340,
2025-10-16T06:44:53.830545+00:00,10.305000,-0.027740,
2025-10-16T06:44:53.835545+00:00,10.310000,-0.020140,
2025-10-16T06:44:53.840545+00:00,10.315000,-0.030400,
2025-10-16T06:44:53.845545+00:00,10.320000,-0.055480,
2025-10-16T06:44:53.850545+00:00,10.325000,-0.069540,
2025-10-16T06:44:53.855545+00:00,10.330000,-0.056620,
2025-10-16T06:44:53.860545+00:00,10.335000,-0.032680,
2025-10-16T06:44:53.865545+00:00,10.340000,-0.023560,
2025-10-16T06:44:53.870545+00:00,10.345000,-0.041040,
2025-10-16T06:44:53.875545+00:00,10.350000,-0.069920,
2025-10-16T06:44:53.880545+00:00,10.355000,-0.082840,
2025-10-16T06:44:53.885545+00:00,10.360000,-0.068780,
2025-10-16T06:44:53.890545+00:00,10.365000,-0.045220,
2025-10-16T06:44:53.895545+00:00,10.370000,-0.035720,
2025-10-16T06:44:53.900545+00:00,10.375000,-0.043700,
2025-10-16T06:44:53.905545+00:00,10.380000,-0.047880,
2025-10-16T06:44:53.910545+00:00,10.385000,-0.031920,
2025-10-16T06:44:53.915545+00:00,10.390000,-0.011400,
2025-10-16T06:44:53.920545+00:00,10.395000,-0.014820,
2025-10-16T06:44:53.925545+00:00,10.400000,-0.038000,
2025-10-16T06:44:53.930545+00:00,10.405000,-0.058520,
2025-10-16T06:44:53.935545+00:00,10.410000,-0.067260,
2025-10-16T06:44:53.940545+00:00,10.415000,-0.076000,
2025-10-16T06:44:53.945545+00:00,10.420000,-0.081320,
2025-10-16T06:44:53.950545+00:00,10.425000,-0.070680,
2025-10-16T06:44:53.955545+00:00,10.430000,-0.050920,
2025-10-16T06:44:53.960545+00:00,10.435000,-0.045220,
2025-10-16T06:44:53.965545+00:00,10.440000,-0.046740,
2025-10-16T06:44:53.970545+00:00,10.445000,-0.034200,
2025-10-16T06:44:53.975545+00:00,10.450000,-0.009880,
2025-10-16T06:44:53.980545+00:00,10.455000,-0.006460,
2025-10-16T06:44:53.985545+00:00,10.460000,-0.035340,
2025-10-16T06:44:53.990545+00:00,10.465000,-0.062700,
2025-10-16T06:44:53.995545+00:00,10.470000,-0.054340,
2025-10-16T06:44:54.000545+00:00,10.475000,-0.027740,
2025-10-16T06:44:54.005545+00:00,10.480000,-0.015960,
2025-10-16T06:44:54.010545+00:00,10.485000,-0.023560,
2025-10-16T06:44:54.015545+00:00,10.490000,-0.037240,
2025-10-16T06:44:54.020545+00:00,10.495000,-0.046360,
2025-10-16T06:44:54.025545+00:00,10.500000,-0.046360,
2025-10-16T06:44:54.030545+00:00,10.505000,-0.042560,
2025-10-16T06:44:54.035545+00:00,10.510000,-0.042560,
2025-10-16T06:44:54.040545+00:00,10.515000,-0.050160,
2025-10-16T06:44:54.045545+00:00,10.520000,-0.056620,
2025-10-16T06:44:54.050545+00:00,10.525000,-0.056240,
2025-10-16T06:44:54.055545+00:00,10.530000,-0.053200,
2025-10-16T06:44:54.060545+00:00,10.535000,-0.058140,
2025-10-16T06:44:54.065545+00:00,10.540000,-0.059660,
2025-10-16T06:44:54.070545+00:00,10.545000,-0.049020,
2025-10-16T06:44:54.075545+00:00,10.550000,-0.028120,
2025-10-16T06:44:54.080545+00:00,10.555000,-0.017480,
2025-10-16T06:44:54.085545+00:00,10.560000,-0.027740,
2025-10-16T06:44:54.090545+00:00,10.565000,-0.046360,
2025-10-16T06:44:54.095545+00:00,10.570000,-0.047880,
2025-10-16T06:44:54.100545+00:00,10.575000,-0.030780,
2025-10-16T06:44:54.105545+00:00,10.580000,-0.019000,
2025-10-16T06:44:54.110545+00:00,10.585000,-0.023560,
2025-10-16T06:44:54.115545+00:00,10.590000,-0.038000,
2025-10-16T06:44:54.120545+00:00,10.595000,-0.053580,
2025-10-16T06:44:54.125545+00:00,10.600000,-0.060800,
2025-10-16T06:44:54.130545+00:00,10.605000,-0.061940,
2025-10-16T06:44:54.135545+00:00,10.610000,-0.058900,
2025-10-16T06:44:54.140545+00:00,10.615000,-0.053580,
2025-10-16T06:44:54.145545+00:00,10.620000,-0.047500,
2025-10-16T06:44:54.150545+00:00,10.625000,-0.042940,
2025-10-16T06:44:54.155545+00:00,10.630000,-0.037240,
2025-10-16T06:44:54.160545+00:00,10.635000,-0.031540,
2025-10-16T06:44:54.165545+00:00,10.640000,-0.032300,
2025-10-16T06:44:54.170545+00:00,10.645000,-0.042180,
2025-10-16T06:44:54.175545+00:00,10.650000,-0.050920,
2025-10-16T06:44:54.180545+00:00,10.655000,-0.049780,
2025-10-16T06:44:54.185545+00:00,10.660000,-0.044840,
2025-10-16T06:44:54.190545+00:00,10.665000,-0.039520,
2025-10-16T06:44:54.195545+00:00,10.670000,-0.036100,
2025-10-16T06:44:54.200545+00:00,10.675000,-0.040280,
2025-10-16T06:44:54.205545+00:00,10.680000,-0.048260,
2025-10-16T06:44:54.210545+00:00,10.685000,-0.047880,
2025-10-16T06:44:54.215545+00:00,10.690000,-0.039140,
2025-10-16T06:44:54.220545+00:00,10.695000,-0.032680,
2025-10-16T06:44:54.225545+00:00,10.700000,-0.032300,
2025-10-16T06:44:54.230545+00:00,10.705000,-0.032680,
2025-10-16T06:44:54.235545+00:00,10.710000,-0.028880,
2025-10-16T06:44:54.240545+00:00,10.715000,-0.025460,
2025-10-16T06:44:54.245545+00:00,10.720000,-0.031160,
2025-10-16T06:44:54.250545+00:00,10.725000,-0.044840,
2025-10-16T06:44:54.255545+00:00,10.730000,-0.058140,
2025-10-16T06:44:54.260545+00:00,10.735000,-0.060040,
2025-10-16T06:44:54.265545+00:00,10.740000,-0.059660,
2025-10-16T06:44:54.270545+00:00,10.745000,-0.057760,
2025-10-16T06:44:54.275545+00:00,10.750000,-0.047120,
2025-10-16T06:44:54.280545+00:00,10.755000,-0.030400,
2025-10-16T06:44:54.285545+00:00,10.760000,-0.024700,
2025-10-16T06:44:54.290545+00:00,10.765000,-0.034200,
2025-10-16T06:44:54.295545+00:00,10.770000,-0.045980,
2025-10-16T06:44:54.300545+00:00,10.775000,-0.038760,
2025-10-16T06:44:54.305545+00:00,10.780000,-0.020520,
2025-10-16T06:44:54.310545+00:00,10.785000,-0.015200,
2025-10-16T06:44:54.315545+00:00,10.790000,-0.026980,
2025-10-16T06:44:54.320545+00:00,10.795000,-0.033440,
2025-10-16T06:44:54.325545+00:00,10.800000,-0.033060,
2025-10-16T06:44:54.330545+00:00,10.805000,-0.036480,
2025-10-16T06:44:54.335545+00:00,10.810000,-0.054340,
2025-10-16T06:44:54.340545+00:00,10.815000,-0.066880,
2025-10-16T06:44:54.345545+00:00,10.820000,-0.053960,
2025-10-16T06:44:54.350545+00:00,10.825000,-0.027360,
2025-10-16T06:44:54.355545+00:00,10.830000,-0.025840,
2025-10-16T06:44:54.360545+00:00,10.835000,-0.049780,
2025-10-16T06:44:54.365545+00:00,10.840000,-0.063080,
2025-10-16T06:44:54.370545+00:00,10.845000,-0.048640,
2025-10-16T06:44:54.375545+00:00,10.850000,-0.036480,
2025-10-16T06:44:54.380545+00:00,10.855000,-0.043700,
2025-10-16T06:44:54.385545+00:00,10.860000,-0.061560,
2025-10-16T06:44:54.390545+00:00,10.865000,-0.067640,
2025-10-16T06:44:54.395545+00:00,10.870000,-0.052820,
2025-10-16T06:44:54.400545+00:00,10.875000,-0.035720,
2025-10-16T06:44:54.405545+00:00,10.880000,-0.035340,
2025-10-16T06:44:54.410545+00:00,10.885000,-0.045220,
2025-10-16T06:44:54.415545+00:00,10.890000,-0.052440,
2025-10-16T06:44:54.420545+00:00,10.895000,-0.053960,
2025-10-16T06:44:54.425545+00:00,10.900000,-0.043320,
2025-10-16T06:44:54.430545+00:00,10.905000,-0.031920,
2025-10-16T06:44:54.435545+00:00,10.910000,-0.032680,
2025-10-16T06:44:54.440545+00:00,10.915000,-0.044840,
2025-10-16T06:44:54.445545+00:00,10.920000,-0.052440,
2025-10-16T06:44:54.450545+00:00,10.925000,-0.052060,
2025-10-16T06:44:54.455545+00:00,10.930000,-0.057760,
2025-10-16T06:44:54.460545+00:00,10.935000,-0.066120,
2025-10-16T06:44:54.465545+00:00,10.940000,-0.065360,
2025-10-16T06:44:54.470545+00:00,10.945000,-0.050160,
2025-10-16T06:44:54.475545+00:00,10.950000,-0.034960,
2025-10-16T06:44:54.480545+00:00,10.955000,-0.038380,
2025-10-16T06:44:54.485545+00:00,10.960000,-0.046360,
2025-10-16T06:44:54.490545+00:00,10.965000,-0.038380,
2025-10-16T06:44:54.495545+00:00,10.970000,-0.015580,
2025-10-16T06:44:54.500545+00:00,10.975000,-0.005700,
2025-10-16T06:44:54.505545+00:00,10.980000,-0.022800,
2025-10-16T06:44:54.510545+00:00,10.985000,-0.051300,
2025-10-16T06:44:54.515545+00:00,10.990000,-0.068020,
2025-10-16T06:44:54.520545+00:00,10.995000,-0.063460,
2025-10-16T06:44:54.525545+00:00,11.000000,-0.049400,
2025-10-16T06:44:54.530545+00:00,11.005000,-0.046360,
2025-10-16T06:44:54.535545+00:00,11.010000,-0.062320,
2025-10-16T06:44:54.540545+00:00,11.015000,-0.075620,
2025-10-16T06:44:54.545545+00:00,11.020000,-0.064600,
2025-10-16T06:44:54.550545+00:00,11.025000,-0.038380,
2025-10-16T06:44:54.555545+00:00,11.030000,-0.026980,
2025-10-16T06:44:54.560545+00:00,11.035000,-0.039140,
2025-10-16T06:44:54.565545+00:00,11.040000,-0.059660,
2025-10-16T06:44:54.570545+00:00,11.045000,-0.064980,
2025-10-16T06:44:54.575545+00:00,11.050000,-0.052060,
2025-10-16T06:44:54.580545+00:00,11.055000,-0.033820,
2025-10-16T06:44:54.585545+00:00,11.060000,-0.029640,
2025-10-16T06:44:54.590545+00:00,11.065000,-0.043320,
2025-10-16T06:44:54.595545+00:00,11.070000,-0.054720,
2025-10-16T06:44:54.600545+00:00,11.075000,-0.051680,
2025-10-16T06:44:54.605545+00:00,11.080000,-0.040280,
2025-10-16T06:44:54.610545+00:00,11.085000,-0.038380,
2025-10-16T06:44:54.615545+00:00,11.090000,-0.050920,
2025-10-16T06:44:54.620545+00:00,11.095000,-0.066120,
2025-10-16T06:44:54.625545+00:00,11.100000,-0.066120,
2025-10-16T06:44:54.630545+00:00,11.105000,-0.048260,
2025-10-16T06:44:54.635545+00:00,11.110000,-0.027740,
2025-10-16T06:44:54.640545+00:00,11.115000,-0.021280,
2025-10-16T06:44:54.645545+00:00,11.120000,-0.035340,
2025-10-16T06:44:54.650545+00:00,11.125000,-0.058520,
2025-10-16T06:44:54.655545+00:00,11.130000,-0.071060,
2025-10-16T06:44:54.660545+00:00,11.135000,-0.057380,
2025-10-16T06:44:54.665545+00:00,11.140000,-0.023560,
2025-10-16T06:44:54.670545+00:00,11.145000,0.009880,
2025-10-16T06:44:54.675545+00:00,11.150000,0.019380,
2025-10-16T06:44:54.680545+00:00,11.155000,-0.002660,
2025-10-16T06:44:54.685545+00:00,11.160000,-0.030400,
2025-10-16T06:44:54.690545+00:00,11.165000,-0.034580,
2025-10-16T06:44:54.695545+00:00,11.170000,-0.018620,
2025-10-16T06:44:54.700545+00:00,11.175000,-0.013300,
2025-10-16T06:44:54.705545+00:00,11.180000,-0.034580,
2025-10-16T06:44:54.710545+00:00,11.185000,-0.054720,
2025-10-16T06:44:54.715545+00:00,11.190000,-0.047120,
2025-10-16T06:44:54.720545+00:00,11.195000,-0.025840,
2025-10-16T06:44:54.725545+00:00,11.200000,-0.019760,
2025-10-16T06:44:54.730545+00:00,11.205000,-0.033060,
2025-10-16T06:44:54.735545+00:00,11.210000,-0.042180,
2025-10-16T06:44:54.740545+00:00,11.215000,-0.039900,
2025-10-16T06:44:54.745545+00:00,11.220000,-0.032300,
2025-10-16T06:44:54.750545+00:00,11.225000,-0.030780,
2025-10-16T06:44:54.755545+00:00,11.230000,-0.034580,
2025-10-16T06:44:54.760545+00:00,11.235000,-0.038760,
2025-10-16T06:44:54.765545+00:00,11.240000,-0.041040,
2025-10-16T06:44:54.770545+00:00,11.245000,-0.047880,
2025-10-16T06:44:54.775545+00:00,11.250000,-0.057380,
2025-10-16T06:44:54.780545+00:00,11.255000,-0.054720,
2025-10-16T06:44:54.785545+00:00,11.260000,-0.039520,
2025-10-16T06:44:54.790545+00:00,11.265000,-0.025840,
2025-10-16T06:44:54.795545+00:00,11.270000,-0.019760,
2025-10-16T06:44:54.800545+00:00,11.275000,-0.032300,
2025-10-16T06:44:54.805545+00:00,11.280000,-0.052440,
2025-10-16T06:44:54.810545+00:00,11.285000,-0.058900,
2025-10-16T06:44:54.815545+00:00,11.290000,-0.044460,
2025-10-16T06:44:54.820545+00:00,11.295000,-0.027360,
2025-10-16T06:44:54.825545+00:00,11.300000,-0.022800,
2025-10-16T06:44:54.830545+00:00,11.305000,-0.036100,
2025-10-16T06:44:54.835545+00:00,11.310000,-0.055100,
