timestamp_utc,t_rel_sec,ecg_mV,event
2025-10-15T05:14:48.936682+00:00,0.000000,0.000000,
2025-10-15T05:14:48.941683+00:00,0.005000,0.000000,
2025-10-15T05:14:48.946682+00:00,0.010000,-0.001140,
2025-10-15T05:14:48.951683+00:00,0.015000,0.000380,
2025-10-15T05:14:48.956682+00:00,0.020000,0.014440,
2025-10-15T05:14:48.961683+00:00,0.025000,-0.072960,
2025-10-15T05:14:48.966682+00:00,0.030000,0.010260,
2025-10-15T05:14:48.971683+00:00,0.035000,0.402420,
2025-10-15T05:14:48.976682+00:00,0.040000,-0.562020,
2025-10-15T05:14:48.981683+00:00,0.045000,-1.268060,
2025-10-15T05:14:48.986682+00:00,0.050000,2.101020,
2025-10-15T05:14:48.991683+00:00,0.055000,3.505880,
2025-10-15T05:14:48.996682+00:00,0.060000,-4.251060,
2025-10-15T05:14:49.001683+00:00,0.065000,-11.939600,
2025-10-15T05:14:49.006682+00:00,0.070000,-3.335640,
2025-10-15T05:14:49.011683+00:00,0.075000,20.922040,
2025-10-15T05:14:49.016682+00:00,0.080000,40.270880,
2025-10-15T05:14:49.021683+00:00,0.085000,39.148360,
2025-10-15T05:14:49.026682+00:00,0.090000,25.357400,
2025-10-15T05:14:49.031682+00:00,0.095000,17.281640,
2025-10-15T05:14:49.036682+00:00,0.100000,18.946040,
2025-10-15T05:14:49.041682+00:00,0.105000,20.716080,
2025-10-15T05:14:49.046682+00:00,0.110000,19.668040,
2025-10-15T05:14:49.051682+00:00,0.115000,19.097280,
2025-10-15T05:14:49.056682+00:00,0.120000,19.007220,
2025-10-15T05:14:49.061682+00:00,0.125000,18.738560,
2025-10-15T05:14:49.066683+00:00,0.130000,18.494220,
2025-10-15T05:14:49.071682+00:00,0.135000,18.248360,
2025-10-15T05:14:49.076683+00:00,0.140000,17.991860,
2025-10-15T05:14:49.081682+00:00,0.145000,17.733840,
2025-10-15T05:14:49.086683+00:00,0.150000,17.470880,
2025-10-15T05:14:49.091682+00:00,0.155000,17.211720,
2025-10-15T05:14:49.096683+00:00,0.160000,16.958260,
2025-10-15T05:14:49.101682+00:00,0.165000,16.705940,
2025-10-15T05:14:49.106683+00:00,0.170000,16.447160,
2025-10-15T05:14:49.111682+00:00,0.175000,16.187240,
2025-10-15T05:14:49.116683+00:00,0.180000,15.932640,
2025-10-15T05:14:49.121682+00:00,0.185000,15.685640,
2025-10-15T05:14:49.126683+00:00,0.190000,15.441680,
2025-10-15T05:14:49.131682+00:00,0.195000,15.193920,
2025-10-15T05:14:49.136683+00:00,0.200000,14.948060,
2025-10-15T05:14:49.141682+00:00,0.205000,14.704100,
2025-10-15T05:14:49.146683+00:00,0.210000,14.463940,
2025-10-15T05:14:49.151682+00:00,0.215000,14.227580,
2025-10-15T05:14:49.156682+00:00,0.220000,13.998060,
2025-10-15T05:14:49.161682+00:00,0.225000,13.775760,
2025-10-15T05:14:49.166682+00:00,0.230000,13.558780,
2025-10-15T05:14:49.171682+00:00,0.235000,13.341800,
2025-10-15T05:14:49.176682+00:00,0.240000,13.127100,
2025-10-15T05:14:49.181682+00:00,0.245000,12.904420,
2025-10-15T05:14:49.186682+00:00,0.250000,12.676040,
2025-10-15T05:14:49.191683+00:00,0.255000,12.456400,
2025-10-15T05:14:49.196682+00:00,0.260000,12.227260,
2025-10-15T05:14:49.201683+00:00,0.265000,11.972280,
2025-10-15T05:14:49.206682+00:00,0.270000,11.749980,
2025-10-15T05:14:49.211683+00:00,0.275000,11.579740,
2025-10-15T05:14:49.216682+00:00,0.280000,11.285240,
2025-10-15T05:14:49.221683+00:00,0.285000,10.606940,
2025-10-15T05:14:49.226682+00:00,0.290000,9.493160,
2025-10-15T05:14:49.231683+00:00,0.295000,8.187100,
2025-10-15T05:14:49.236682+00:00,0.300000,7.006440,
2025-10-15T05:14:49.241683+00:00,0.305000,6.082280,
2025-10-15T05:14:49.246682+00:00,0.310000,5.384220,
2025-10-15T05:14:49.251683+00:00,0.315000,4.876540,
2025-10-15T05:14:49.256682+00:00,0.320000,4.549360,
2025-10-15T05:14:49.261683+00:00,0.325000,4.341120,
2025-10-15T05:14:49.266682+00:00,0.330000,4.181520,
2025-10-15T05:14:49.271683+00:00,0.335000,4.047760,
2025-10-15T05:14:49.276682+00:00,0.340000,3.932240,
2025-10-15T05:14:49.281682+00:00,0.345000,3.824700,
2025-10-15T05:14:49.286682+00:00,0.350000,3.716780,
2025-10-15T05:14:49.291682+00:00,0.355000,3.613800,
2025-10-15T05:14:49.296682+00:00,0.360000,3.520700,
2025-10-15T05:14:49.301682+00:00,0.365000,3.432160,
2025-10-15T05:14:49.306682+00:00,0.370000,3.342860,
2025-10-15T05:14:49.311682+00:00,0.375000,3.254320,
2025-10-15T05:14:49.316683+00:00,0.380000,3.169200,
2025-10-15T05:14:49.321682+00:00,0.385000,3.087120,
2025-10-15T05:14:49.326683+00:00,0.390000,3.002760,
2025-10-15T05:14:49.331682+00:00,0.395000,2.913080,
2025-10-15T05:14:49.336683+00:00,0.400000,2.822260,
2025-10-15T05:14:49.341682+00:00,0.405000,2.739800,
2025-10-15T05:14:49.346683+00:00,0.410000,2.667600,
2025-10-15T05:14:49.351682+00:00,0.415000,2.601100,
2025-10-15T05:14:49.356683+00:00,0.420000,2.534980,
2025-10-15T05:14:49.361682+00:00,0.425000,2.468480,
2025-10-15T05:14:49.366683+00:00,0.430000,2.405020,
2025-10-15T05:14:49.371682+00:00,0.435000,2.354860,
2025-10-15T05:14:49.376683+00:00,0.440000,2.316860,
2025-10-15T05:14:49.381682+00:00,0.445000,2.275060,
2025-10-15T05:14:49.386683+00:00,0.450000,2.225280,
2025-10-15T05:14:49.391682+00:00,0.455000,2.181960,
2025-10-15T05:14:49.396683+00:00,0.460000,2.160300,
2025-10-15T05:14:49.401682+00:00,0.465000,2.159540,
2025-10-15T05:14:49.406682+00:00,0.470000,2.175500,
2025-10-15T05:14:49.411682+00:00,0.475000,2.218820,
2025-10-15T05:14:49.416682+00:00,0.480000,2.293300,
2025-10-15T05:14:49.421682+00:00,0.485000,2.380320,
2025-10-15T05:14:49.426682+00:00,0.490000,2.442640,
2025-10-15T05:14:49.431682+00:00,0.495000,2.465440,
2025-10-15T05:14:49.436682+00:00,0.500000,2.471140,
2025-10-15T05:14:49.441683+00:00,0.505000,2.480260,
2025-10-15T05:14:49.446682+00:00,0.510000,2.489380,
2025-10-15T05:14:49.451683+00:00,0.515000,2.479120,
2025-10-15T05:14:49.456682+00:00,0.520000,2.451380,
2025-10-15T05:14:49.461683+00:00,0.525000,2.422120,
2025-10-15T05:14:49.466682+00:00,0.530000,2.399320,
2025-10-15T05:14:49.471683+00:00,0.535000,2.371960,
2025-10-15T05:14:49.476682+00:00,0.540000,2.334720,
2025-10-15T05:14:49.481683+00:00,0.545000,2.293680,
2025-10-15T05:14:49.486682+00:00,0.550000,2.266700,
2025-10-15T05:14:49.491683+00:00,0.555000,2.246180,
2025-10-15T05:14:49.496682+00:00,0.560000,2.211600,
2025-10-15T05:14:49.501683+00:00,0.565000,2.166760,
2025-10-15T05:14:49.506682+00:00,0.570000,2.134080,
2025-10-15T05:14:49.511683+00:00,0.575000,2.115840,
2025-10-15T05:14:49.516682+00:00,0.580000,2.088860,
2025-10-15T05:14:49.521683+00:00,0.585000,2.046680,
2025-10-15T05:14:49.526682+00:00,0.590000,2.000700,
2025-10-15T05:14:49.531682+00:00,0.595000,1.961180,
2025-10-15T05:14:49.536682+00:00,0.600000,1.928120,
2025-10-15T05:14:49.541682+00:00,0.605000,1.888980,
2025-10-15T05:14:49.546682+00:00,0.610000,1.849840,
2025-10-15T05:14:49.551682+00:00,0.615000,1.824760,
2025-10-15T05:14:49.556682+00:00,0.620000,1.809560,
2025-10-15T05:14:49.561682+00:00,0.625000,1.785620,
2025-10-15T05:14:49.566683+00:00,0.630000,1.750280,
2025-10-15T05:14:49.571682+00:00,0.635000,1.713040,
2025-10-15T05:14:49.576683+00:00,0.640000,1.683020,
2025-10-15T05:14:49.581682+00:00,0.645000,1.663640,
2025-10-15T05:14:49.586683+00:00,0.650000,1.652620,
2025-10-15T05:14:49.591682+00:00,0.655000,1.627920,
2025-10-15T05:14:49.596683+00:00,0.660000,1.588400,
2025-10-15T05:14:49.601682+00:00,0.665000,1.548500,
2025-10-15T05:14:49.606683+00:00,0.670000,1.522280,
2025-10-15T05:14:49.611682+00:00,0.675000,1.501000,
2025-10-15T05:14:49.616683+00:00,0.680000,1.480860,
2025-10-15T05:14:49.621682+00:00,0.685000,1.458820,
2025-10-15T05:14:49.626683+00:00,0.690000,1.438300,
2025-10-15T05:14:49.631682+00:00,0.695000,1.414740,
2025-10-15T05:14:49.636683+00:00,0.700000,1.384340,
2025-10-15T05:14:49.641682+00:00,0.705000,1.358120,
2025-10-15T05:14:49.646683+00:00,0.710000,1.337980,
2025-10-15T05:14:49.651682+00:00,0.715000,1.319740,
2025-10-15T05:14:49.656682+00:00,0.720000,1.296940,
2025-10-15T05:14:49.661682+00:00,0.725000,1.271100,
2025-10-15T05:14:49.666682+00:00,0.730000,1.248680,
2025-10-15T05:14:49.671682+00:00,0.735000,1.225880,
2025-10-15T05:14:49.676682+00:00,0.740000,1.204600,
2025-10-15T05:14:49.681682+00:00,0.745000,1.187500,
2025-10-15T05:14:49.686682+00:00,0.750000,1.173820,
2025-10-15T05:14:49.691683+00:00,0.755000,1.152920,
2025-10-15T05:14:49.696682+00:00,0.760000,1.122900,
2025-10-15T05:14:49.701683+00:00,0.765000,1.094400,
2025-10-15T05:14:49.706682+00:00,0.770000,1.079960,
2025-10-15T05:14:49.711683+00:00,0.775000,1.071220,
2025-10-15T05:14:49.716682+00:00,0.780000,1.054120,
2025-10-15T05:14:49.721683+00:00,0.785000,1.027140,
2025-10-15T05:14:49.726682+00:00,0.790000,0.993320,
2025-10-15T05:14:49.731683+00:00,0.795000,0.960640,
2025-10-15T05:14:49.736682+00:00,0.800000,0.941260,
2025-10-15T05:14:49.741683+00:00,0.805000,0.935560,
2025-10-15T05:14:49.746682+00:00,0.810000,0.935180,
2025-10-15T05:14:49.751683+00:00,0.815000,0.929480,
2025-10-15T05:14:49.756682+00:00,0.820000,0.913140,
2025-10-15T05:14:49.761683+00:00,0.825000,0.888440,
2025-10-15T05:14:49.766682+00:00,0.830000,0.862980,
2025-10-15T05:14:49.771683+00:00,0.835000,0.840180,
2025-10-15T05:14:49.776682+00:00,0.840000,0.820420,
2025-10-15T05:14:49.781682+00:00,0.845000,0.800660,
2025-10-15T05:14:49.786682+00:00,0.850000,0.784320,
2025-10-15T05:14:49.791682+00:00,0.855000,0.765700,
2025-10-15T05:14:49.796682+00:00,0.860000,0.742900,
2025-10-15T05:14:49.801682+00:00,0.865000,0.717060,
2025-10-15T05:14:49.806682+00:00,0.870000,0.694260,
2025-10-15T05:14:49.811682+00:00,0.875000,0.682100,
2025-10-15T05:14:49.816683+00:00,0.880000,0.680960,
2025-10-15T05:14:49.821682+00:00,0.885000,0.667280,
2025-10-15T05:14:49.826683+00:00,0.890000,0.627380,
2025-10-15T05:14:49.831682+00:00,0.895000,0.572280,
2025-10-15T05:14:49.836683+00:00,0.900000,0.518320,
2025-10-15T05:14:49.841682+00:00,0.905000,0.470440,
2025-10-15T05:14:49.846683+00:00,0.910000,0.410780,
2025-10-15T05:14:49.851682+00:00,0.915000,0.328320,
2025-10-15T05:14:49.856683+00:00,0.920000,0.223820,
2025-10-15T05:14:49.861682+00:00,0.925000,0.110580,
2025-10-15T05:14:49.866683+00:00,0.930000,0.001900,
2025-10-15T05:14:49.871682+00:00,0.935000,-0.093100,
2025-10-15T05:14:49.876683+00:00,0.940000,-0.175560,
2025-10-15T05:14:49.881682+00:00,0.945000,-0.249660,
2025-10-15T05:14:49.886683+00:00,0.950000,-0.320340,
2025-10-15T05:14:49.891682+00:00,0.955000,-0.368220,
2025-10-15T05:14:49.896683+00:00,0.960000,-0.372400,
2025-10-15T05:14:49.901682+00:00,0.965000,-0.329080,
2025-10-15T05:14:49.906682+00:00,0.970000,-0.264480,
2025-10-15T05:14:49.911682+00:00,0.975000,-0.186580,
2025-10-15T05:14:49.916682+00:00,0.980000,-0.096140,
2025-10-15T05:14:49.921682+00:00,0.985000,-0.060420,
2025-10-15T05:14:49.926682+00:00,0.990000,-0.108680,
2025-10-15T05:14:49.931682+00:00,0.995000,-0.155040,
2025-10-15T05:14:49.936682+00:00,1.000000,-0.079800,
2025-10-15T05:14:49.941683+00:00,1.005000,0.157700,
2025-10-15T05:14:49.946682+00:00,1.010000,0.488300,
2025-10-15T05:14:49.951683+00:00,1.015000,0.824600,
2025-10-15T05:14:49.956682+00:00,1.020000,1.068940,
2025-10-15T05:14:49.961683+00:00,1.025000,1.157860,
2025-10-15T05:14:49.966682+00:00,1.030000,1.111500,
2025-10-15T05:14:49.971683+00:00,1.035000,0.854620,
2025-10-15T05:14:49.976682+00:00,1.040000,0.370500,
2025-10-15T05:14:49.981683+00:00,1.045000,-0.169860,
2025-10-15T05:14:49.986682+00:00,1.050000,-0.650940,
2025-10-15T05:14:49.991683+00:00,1.055000,-1.211820,
2025-10-15T05:14:49.996682+00:00,1.060000,-2.072520,
2025-10-15T05:14:50.001683+00:00,1.065000,-3.132720,
2025-10-15T05:14:50.006682+00:00,1.070000,-3.979360,
2025-10-15T05:14:50.011683+00:00,1.075000,-4.333520,
2025-10-15T05:14:50.016682+00:00,1.080000,-4.364300,
2025-10-15T05:14:50.021683+00:00,1.085000,-4.409140,
2025-10-15T05:14:50.026682+00:00,1.090000,-4.499580,
2025-10-15T05:14:50.031682+00:00,1.095000,-4.518200,
2025-10-15T05:14:50.036682+00:00,1.100000,-4.501100,
2025-10-15T05:14:50.041682+00:00,1.105000,-4.501100,
2025-10-15T05:14:50.046682+00:00,1.110000,-4.517820,
2025-10-15T05:14:50.051682+00:00,1.115000,-4.536820,
2025-10-15T05:14:50.056682+00:00,1.120000,-4.547840,
2025-10-15T05:14:50.061682+00:00,1.125000,-4.541380,
2025-10-15T05:14:50.066683+00:00,1.130000,-4.520480,
2025-10-15T05:14:50.071682+00:00,1.135000,-4.500720,
2025-10-15T05:14:50.076683+00:00,1.140000,-4.487800,
2025-10-15T05:14:50.081682+00:00,1.145000,-4.474120,
2025-10-15T05:14:50.086683+00:00,1.150000,-4.446000,
2025-10-15T05:14:50.091682+00:00,1.155000,-4.406100,
2025-10-15T05:14:50.096683+00:00,1.160000,-4.367720,
2025-10-15T05:14:50.101682+00:00,1.165000,-4.336180,
2025-10-15T05:14:50.106683+00:00,1.170000,-4.297420,
2025-10-15T05:14:50.111682+00:00,1.175000,-4.240800,
2025-10-15T05:14:50.116683+00:00,1.180000,-4.175060,
2025-10-15T05:14:50.121682+00:00,1.185000,-4.118060,
2025-10-15T05:14:50.126683+00:00,1.190000,-4.081580,
2025-10-15T05:14:50.131682+00:00,1.195000,-4.053460,
2025-10-15T05:14:50.136683+00:00,1.200000,-4.012040,
2025-10-15T05:14:50.141682+00:00,1.205000,-3.955420,
2025-10-15T05:14:50.146683+00:00,1.210000,-3.893860,
2025-10-15T05:14:50.151682+00:00,1.215000,-3.839520,
2025-10-15T05:14:50.156682+00:00,1.220000,-3.793160,
2025-10-15T05:14:50.161682+00:00,1.225000,-3.747940,
2025-10-15T05:14:50.166682+00:00,1.230000,-3.701960,
2025-10-15T05:14:50.171682+00:00,1.235000,-3.654460,
2025-10-15T05:14:50.176682+00:00,1.240000,-3.604300,
2025-10-15T05:14:50.181682+00:00,1.245000,-3.553000,
2025-10-15T05:14:50.186682+00:00,1.250000,-3.501700,
2025-10-15T05:14:50.191683+00:00,1.255000,-3.452680,
2025-10-15T05:14:50.196682+00:00,1.260000,-3.406320,
2025-10-15T05:14:50.201683+00:00,1.265000,-3.359580,
2025-10-15T05:14:50.206682+00:00,1.270000,-3.313600,
2025-10-15T05:14:50.211683+00:00,1.275000,-3.268380,
2025-10-15T05:14:50.216682+00:00,1.280000,-3.226580,
2025-10-15T05:14:50.221683+00:00,1.285000,-3.188580,
2025-10-15T05:14:50.226682+00:00,1.290000,-3.147160,
2025-10-15T05:14:50.231683+00:00,1.295000,-3.090920,
2025-10-15T05:14:50.236682+00:00,1.300000,-3.023280,
2025-10-15T05:14:50.241683+00:00,1.305000,-2.968180,
2025-10-15T05:14:50.246682+00:00,1.310000,-2.938540,
2025-10-15T05:14:50.251683+00:00,1.315000,-2.917640,
2025-10-15T05:14:50.256682+00:00,1.320000,-2.888380,
2025-10-15T05:14:50.261683+00:00,1.325000,-2.842400,
2025-10-15T05:14:50.266682+00:00,1.330000,-2.787680,
2025-10-15T05:14:50.271683+00:00,1.335000,-2.733340,
2025-10-15T05:14:50.276682+00:00,1.340000,-2.688500,
2025-10-15T05:14:50.281682+00:00,1.345000,-2.653540,
2025-10-15T05:14:50.286682+00:00,1.350000,-2.622760,
2025-10-15T05:14:50.291682+00:00,1.355000,-2.585140,
2025-10-15T05:14:50.296682+00:00,1.360000,-2.549040,
2025-10-15T05:14:50.301682+00:00,1.365000,-2.519020,
2025-10-15T05:14:50.306682+00:00,1.370000,-2.490900,
2025-10-15T05:14:50.311682+00:00,1.375000,-2.451380,
2025-10-15T05:14:50.316683+00:00,1.380000,-2.406920,
2025-10-15T05:14:50.321682+00:00,1.385000,-2.374620,
2025-10-15T05:14:50.326683+00:00,1.390000,-2.358280,
2025-10-15T05:14:50.331682+00:00,1.395000,-2.333200,
2025-10-15T05:14:50.336683+00:00,1.400000,-2.295960,
2025-10-15T05:14:50.341682+00:00,1.405000,-2.261000,
2025-10-15T05:14:50.346683+00:00,1.410000,-2.233260,
2025-10-15T05:14:50.351682+00:00,1.415000,-2.198300,
2025-10-15T05:14:50.356683+00:00,1.420000,-2.156120,
2025-10-15T05:14:50.361682+00:00,1.425000,-2.111660,
2025-10-15T05:14:50.366683+00:00,1.430000,-2.071760,
2025-10-15T05:14:50.371682+00:00,1.435000,-2.040600,
2025-10-15T05:14:50.376683+00:00,1.440000,-2.014000,
2025-10-15T05:14:50.381682+00:00,1.445000,-1.991580,
2025-10-15T05:14:50.386683+00:00,1.450000,-1.965360,
2025-10-15T05:14:50.391682+00:00,1.455000,-1.930400,
2025-10-15T05:14:50.396683+00:00,1.460000,-1.895440,
2025-10-15T05:14:50.401682+00:00,1.465000,-1.868080,
2025-10-15T05:14:50.406682+00:00,1.470000,-1.843380,
2025-10-15T05:14:50.411682+00:00,1.475000,-1.817160,
2025-10-15T05:14:50.416682+00:00,1.480000,-1.789420,
2025-10-15T05:14:50.421682+00:00,1.485000,-1.764340,
2025-10-15T05:14:50.426682+00:00,1.490000,-1.738880,
2025-10-15T05:14:50.431682+00:00,1.495000,-1.715320,
2025-10-15T05:14:50.436682+00:00,1.500000,-1.692520,
2025-10-15T05:14:50.441683+00:00,1.505000,-1.670100,
2025-10-15T05:14:50.446682+00:00,1.510000,-1.647300,
2025-10-15T05:14:50.451683+00:00,1.515000,-1.622980,
2025-10-15T05:14:50.456682+00:00,1.520000,-1.596380,
2025-10-15T05:14:50.461683+00:00,1.525000,-1.566740,
2025-10-15T05:14:50.466682+00:00,1.530000,-1.534440,
2025-10-15T05:14:50.471683+00:00,1.535000,-1.513160,
2025-10-15T05:14:50.476682+00:00,1.540000,-1.505560,
2025-10-15T05:14:50.481683+00:00,1.545000,-1.500240,
2025-10-15T05:14:50.486682+00:00,1.550000,-1.483520,
2025-10-15T05:14:50.491683+00:00,1.555000,-1.456920,
2025-10-15T05:14:50.496682+00:00,1.560000,-1.429940,
2025-10-15T05:14:50.501683+00:00,1.565000,-1.407140,
2025-10-15T05:14:50.506682+00:00,1.570000,-1.393460,
2025-10-15T05:14:50.511683+00:00,1.575000,-1.378640,
2025-10-15T05:14:50.516682+00:00,1.580000,-1.351660,
2025-10-15T05:14:50.521683+00:00,1.585000,-1.315560,
2025-10-15T05:14:50.526682+00:00,1.590000,-1.288200,
2025-10-15T05:14:50.531682+00:00,1.595000,-1.273380,
2025-10-15T05:14:50.536682+00:00,1.600000,-1.263500,
2025-10-15T05:14:50.541682+00:00,1.605000,-1.246780,
2025-10-15T05:14:50.546682+00:00,1.610000,-1.226260,
2025-10-15T05:14:50.551682+00:00,1.615000,-1.214480,
2025-10-15T05:14:50.556682+00:00,1.620000,-1.208780,
2025-10-15T05:14:50.561682+00:00,1.625000,-1.194720,
2025-10-15T05:14:50.566683+00:00,1.630000,-1.178760,
2025-10-15T05:14:50.571682+00:00,1.635000,-1.169260,
2025-10-15T05:14:50.576683+00:00,1.640000,-1.161280,
2025-10-15T05:14:50.581682+00:00,1.645000,-1.141140,
2025-10-15T05:14:50.586683+00:00,1.650000,-1.110740,
2025-10-15T05:14:50.591682+00:00,1.655000,-1.088700,
2025-10-15T05:14:50.596683+00:00,1.660000,-1.080720,
2025-10-15T05:14:50.601682+00:00,1.665000,-1.066280,
2025-10-15T05:14:50.606683+00:00,1.670000,-1.037020,
2025-10-15T05:14:50.611682+00:00,1.675000,-1.003200,
2025-10-15T05:14:50.616683+00:00,1.680000,-0.985720,
2025-10-15T05:14:50.621682+00:00,1.685000,-0.983820,
2025-10-15T05:14:50.626683+00:00,1.690000,-0.982680,
2025-10-15T05:14:50.631682+00:00,1.695000,-0.971660,
2025-10-15T05:14:50.636683+00:00,1.700000,-0.957220,
2025-10-15T05:14:50.641682+00:00,1.705000,-0.943160,
2025-10-15T05:14:50.646683+00:00,1.710000,-0.926820,
2025-10-15T05:14:50.651682+00:00,1.715000,-0.908200,
2025-10-15T05:14:50.656682+00:00,1.720000,-0.891860,
2025-10-15T05:14:50.661682+00:00,1.725000,-0.878940,
2025-10-15T05:14:50.666682+00:00,1.730000,-0.865260,
2025-10-15T05:14:50.671682+00:00,1.735000,-0.852340,
2025-10-15T05:14:50.676682+00:00,1.740000,-0.842080,
2025-10-15T05:14:50.681682+00:00,1.745000,-0.832960,
2025-10-15T05:14:50.686682+00:00,1.750000,-0.818140,
2025-10-15T05:14:50.691683+00:00,1.755000,-0.795720,
2025-10-15T05:14:50.696682+00:00,1.760000,-0.774820,
2025-10-15T05:14:50.701683+00:00,1.765000,-0.767980,
2025-10-15T05:14:50.706682+00:00,1.770000,-0.769500,
2025-10-15T05:14:50.711683+00:00,1.775000,-0.770640,
2025-10-15T05:14:50.716682+00:00,1.780000,-0.761900,
2025-10-15T05:14:50.721683+00:00,1.785000,-0.743280,
2025-10-15T05:14:50.726682+00:00,1.790000,-0.722000,
2025-10-15T05:14:50.731683+00:00,1.795000,-0.707940,
2025-10-15T05:14:50.736682+00:00,1.800000,-0.702240,
2025-10-15T05:14:50.741683+00:00,1.805000,-0.704520,
2025-10-15T05:14:50.746682+00:00,1.810000,-0.698820,
2025-10-15T05:14:50.751683+00:00,1.815000,-0.686660,
2025-10-15T05:14:50.756682+00:00,1.820000,-0.674500,
2025-10-15T05:14:50.761683+00:00,1.825000,-0.666900,
2025-10-15T05:14:50.766682+00:00,1.830000,-0.650940,
2025-10-15T05:14:50.771683+00:00,1.835000,-0.628900,
2025-10-15T05:14:50.776682+00:00,1.840000,-0.613700,
2025-10-15T05:14:50.781682+00:00,1.845000,-0.616360,
2025-10-15T05:14:50.786682+00:00,1.850000,-0.623200,
2025-10-15T05:14:50.791682+00:00,1.855000,-0.615980,
2025-10-15T05:14:50.796682+00:00,1.860000,-0.590140,
2025-10-15T05:14:50.801682+00:00,1.865000,-0.565820,
2025-10-15T05:14:50.806682+00:00,1.870000,-0.561260,
2025-10-15T05:14:50.811682+00:00,1.875000,-0.567340,
2025-10-15T05:14:50.816683+00:00,1.880000,-0.568100,
2025-10-15T05:14:50.821682+00:00,1.885000,-0.557840,
2025-10-15T05:14:50.826683+00:00,1.890000,-0.544920,
2025-10-15T05:14:50.831682+00:00,1.895000,-0.536560,
2025-10-15T05:14:50.836683+00:00,1.900000,-0.526300,
2025-10-15T05:14:50.841682+00:00,1.905000,-0.515280,
2025-10-15T05:14:50.846683+00:00,1.910000,-0.508440,
2025-10-15T05:14:50.851682+00:00,1.915000,-0.508060,
2025-10-15T05:14:50.856683+00:00,1.920000,-0.510340,
2025-10-15T05:14:50.861682+00:00,1.925000,-0.511480,
2025-10-15T05:14:50.866683+00:00,1.930000,-0.503500,
2025-10-15T05:14:50.871682+00:00,1.935000,-0.485260,
2025-10-15T05:14:50.876683+00:00,1.940000,-0.462840,
2025-10-15T05:14:50.881682+00:00,1.945000,-0.448400,
2025-10-15T05:14:50.886683+00:00,1.950000,-0.448400,
2025-10-15T05:14:50.891682+00:00,1.955000,-0.453720,
2025-10-15T05:14:50.896683+00:00,1.960000,-0.448400,
2025-10-15T05:14:50.901682+00:00,1.965000,-0.435860,
2025-10-15T05:14:50.906682+00:00,1.970000,-0.432820,
2025-10-15T05:14:50.911682+00:00,1.975000,-0.438140,
2025-10-15T05:14:50.916682+00:00,1.980000,-0.435100,
2025-10-15T05:14:50.921682+00:00,1.985000,-0.421800,
2025-10-15T05:14:50.926682+00:00,1.990000,-0.405080,
2025-10-15T05:14:50.931682+00:00,1.995000,-0.400520,
2025-10-15T05:14:50.936682+00:00,2.000000,-0.403940,
2025-10-15T05:14:50.941683+00:00,2.005000,-0.405840,
2025-10-15T05:14:50.946682+00:00,2.010000,-0.401280,
2025-10-15T05:14:50.951683+00:00,2.015000,-0.392160,
2025-10-15T05:14:50.956682+00:00,2.020000,-0.386460,
2025-10-15T05:14:50.961683+00:00,2.025000,-0.389120,
2025-10-15T05:14:50.966682+00:00,2.030000,-0.392920,
2025-10-15T05:14:50.971683+00:00,2.035000,-0.385700,
2025-10-15T05:14:50.976682+00:00,2.040000,-0.367460,
2025-10-15T05:14:50.981683+00:00,2.045000,-0.350740,
2025-10-15T05:14:50.986682+00:00,2.050000,-0.346560,
2025-10-15T05:14:50.991683+00:00,2.055000,-0.357960,
2025-10-15T05:14:50.996682+00:00,2.060000,-0.368600,
2025-10-15T05:14:51.001683+00:00,2.065000,-0.370500,
2025-10-15T05:14:51.006682+00:00,2.070000,-0.365560,
2025-10-15T05:14:51.011683+00:00,2.075000,-0.355300,
2025-10-15T05:14:51.016682+00:00,2.080000,-0.344280,
2025-10-15T05:14:51.021683+00:00,2.085000,-0.338580,
2025-10-15T05:14:51.026682+00:00,2.090000,-0.337820,
2025-10-15T05:14:51.031682+00:00,2.095000,-0.335160,
2025-10-15T05:14:51.036682+00:00,2.100000,-0.328320,
2025-10-15T05:14:51.041682+00:00,2.105000,-0.321860,
2025-10-15T05:14:51.046682+00:00,2.110000,-0.319580,
2025-10-15T05:14:51.051682+00:00,2.115000,-0.318060,
2025-10-15T05:14:51.056682+00:00,2.120000,-0.312740,
2025-10-15T05:14:51.061682+00:00,2.125000,-0.304000,
2025-10-15T05:14:51.066683+00:00,2.130000,-0.296020,
2025-10-15T05:14:51.071682+00:00,2.135000,-0.290320,
2025-10-15T05:14:51.076683+00:00,2.140000,-0.283100,
2025-10-15T05:14:51.081682+00:00,2.145000,-0.277400,
2025-10-15T05:14:51.086683+00:00,2.150000,-0.279300,
2025-10-15T05:14:51.091682+00:00,2.155000,-0.286140,
2025-10-15T05:14:51.096683+00:00,2.160000,-0.283860,
2025-10-15T05:14:51.101682+00:00,2.165000,-0.264480,
2025-10-15T05:14:51.106683+00:00,2.170000,-0.251180,
2025-10-15T05:14:51.111682+00:00,2.175000,-0.256880,
2025-10-15T05:14:51.116683+00:00,2.180000,-0.269420,
2025-10-15T05:14:51.121682+00:00,2.185000,-0.268660,
2025-10-15T05:14:51.126683+00:00,2.190000,-0.253840,
2025-10-15T05:14:51.131682+00:00,2.195000,-0.242060,
2025-10-15T05:14:51.136683+00:00,2.200000,-0.243960,
2025-10-15T05:14:51.141682+00:00,2.205000,-0.254980,
2025-10-15T05:14:51.146683+00:00,2.210000,-0.254980,
2025-10-15T05:14:51.151682+00:00,2.215000,-0.241300,
2025-10-15T05:14:51.156682+00:00,2.220000,-0.228760,
2025-10-15T05:14:51.161682+00:00,2.225000,-0.228760,
2025-10-15T05:14:51.166682+00:00,2.230000,-0.232940,
2025-10-15T05:14:51.171682+00:00,2.235000,-0.229900,
2025-10-15T05:14:51.176682+00:00,2.240000,-0.219260,
2025-10-15T05:14:51.181682+00:00,2.245000,-0.216220,
2025-10-15T05:14:51.186682+00:00,2.250000,-0.226860,
2025-10-15T05:14:51.191683+00:00,2.255000,-0.237880,
2025-10-15T05:14:51.196682+00:00,2.260000,-0.235220,
2025-10-15T05:14:51.201683+00:00,2.265000,-0.228000,
2025-10-15T05:14:51.206682+00:00,2.270000,-0.228000,
2025-10-15T05:14:51.211683+00:00,2.275000,-0.231800,
2025-10-15T05:14:51.216682+00:00,2.280000,-0.229520,
2025-10-15T05:14:51.221683+00:00,2.285000,-0.221160,
2025-10-15T05:14:51.226682+00:00,2.290000,-0.209380,
2025-10-15T05:14:51.231683+00:00,2.295000,-0.199500,
2025-10-15T05:14:51.236682+00:00,2.300000,-0.192280,
2025-10-15T05:14:51.241683+00:00,2.305000,-0.191900,
2025-10-15T05:14:51.246682+00:00,2.310000,-0.192660,
2025-10-15T05:14:51.251683+00:00,2.315000,-0.185820,
2025-10-15T05:14:51.256682+00:00,2.320000,-0.172520,
2025-10-15T05:14:51.261683+00:00,2.325000,-0.165680,
2025-10-15T05:14:51.266682+00:00,2.330000,-0.169100,
2025-10-15T05:14:51.271683+00:00,2.335000,-0.175560,
2025-10-15T05:14:51.276682+00:00,2.340000,-0.174420,
2025-10-15T05:14:51.281682+00:00,2.345000,-0.168340,
2025-10-15T05:14:51.286682+00:00,2.350000,-0.163400,
2025-10-15T05:14:51.291682+00:00,2.355000,-0.166060,
2025-10-15T05:14:51.296682+00:00,2.360000,-0.172520,
2025-10-15T05:14:51.301682+00:00,2.365000,-0.175180,
2025-10-15T05:14:51.306682+00:00,2.370000,-0.172140,
2025-10-15T05:14:51.311682+00:00,2.375000,-0.167200,
2025-10-15T05:14:51.316683+00:00,2.380000,-0.164920,
2025-10-15T05:14:51.321682+00:00,2.385000,-0.169100,
2025-10-15T05:14:51.326683+00:00,2.390000,-0.172520,
2025-10-15T05:14:51.331682+00:00,2.395000,-0.170240,
2025-10-15T05:14:51.336683+00:00,2.400000,-0.167580,
2025-10-15T05:14:51.341682+00:00,2.405000,-0.172140,
2025-10-15T05:14:51.346683+00:00,2.410000,-0.175180,
2025-10-15T05:14:51.351682+00:00,2.415000,-0.164540,
2025-10-15T05:14:51.356683+00:00,2.420000,-0.147060,
2025-10-15T05:14:51.361682+00:00,2.425000,-0.145160,
2025-10-15T05:14:51.366683+00:00,2.430000,-0.162260,
2025-10-15T05:14:51.371682+00:00,2.435000,-0.175560,
2025-10-15T05:14:51.376683+00:00,2.440000,-0.163780,
2025-10-15T05:14:51.381682+00:00,2.445000,-0.141740,
2025-10-15T05:14:51.386683+00:00,2.450000,-0.137180,
2025-10-15T05:14:51.391682+00:00,2.455000,-0.152000,
2025-10-15T05:14:51.396683+00:00,2.460000,-0.163020,
2025-10-15T05:14:51.401682+00:00,2.465000,-0.153900,
2025-10-15T05:14:51.406682+00:00,2.470000,-0.132240,
2025-10-15T05:14:51.411682+00:00,2.475000,-0.116280,
2025-10-15T05:14:51.416682+00:00,2.480000,-0.104120,
2025-10-15T05:14:51.421682+00:00,2.485000,-0.094240,
2025-10-15T05:14:51.426682+00:00,2.490000,-0.093100,
2025-10-15T05:14:51.431682+00:00,2.495000,-0.105640,
2025-10-15T05:14:51.436682+00:00,2.500000,-0.117040,
2025-10-15T05:14:51.441683+00:00,2.505000,-0.115900,
2025-10-15T05:14:51.446682+00:00,2.510000,-0.111720,
2025-10-15T05:14:51.451683+00:00,2.515000,-0.112100,
2025-10-15T05:14:51.456682+00:00,2.520000,-0.117800,
2025-10-15T05:14:51.461683+00:00,2.525000,-0.121980,
2025-10-15T05:14:51.466682+00:00,2.530000,-0.118180,
2025-10-15T05:14:51.471683+00:00,2.535000,-0.111720,
2025-10-15T05:14:51.476682+00:00,2.540000,-0.108300,
2025-10-15T05:14:51.481683+00:00,2.545000,-0.112860,
2025-10-15T05:14:51.486682+00:00,2.550000,-0.121220,
2025-10-15T05:14:51.491683+00:00,2.555000,-0.127300,
2025-10-15T05:14:51.496682+00:00,2.560000,-0.123880,
2025-10-15T05:14:51.501683+00:00,2.565000,-0.115520,
2025-10-15T05:14:51.506682+00:00,2.570000,-0.110960,
2025-10-15T05:14:51.511683+00:00,2.575000,-0.110200,
2025-10-15T05:14:51.516682+00:00,2.580000,-0.105640,
2025-10-15T05:14:51.521683+00:00,2.585000,-0.101840,
2025-10-15T05:14:51.526682+00:00,2.590000,-0.105260,
2025-10-15T05:14:51.531682+00:00,2.595000,-0.106400,
2025-10-15T05:14:51.536682+00:00,2.600000,-0.103740,
2025-10-15T05:14:51.541682+00:00,2.605000,-0.104120,
2025-10-15T05:14:51.546682+00:00,2.610000,-0.109060,
2025-10-15T05:14:51.551682+00:00,2.615000,-0.114000,
2025-10-15T05:14:51.556682+00:00,2.620000,-0.115520,
2025-10-15T05:14:51.561682+00:00,2.625000,-0.111720,
2025-10-15T05:14:51.566683+00:00,2.630000,-0.106780,
2025-10-15T05:14:51.571682+00:00,2.635000,-0.099940,
2025-10-15T05:14:51.576683+00:00,2.640000,-0.090820,
2025-10-15T05:14:51.581682+00:00,2.645000,-0.083980,
2025-10-15T05:14:51.586683+00:00,2.650000,-0.087400,
2025-10-15T05:14:51.591682+00:00,2.655000,-0.094240,
2025-10-15T05:14:51.596683+00:00,2.660000,-0.095000,
2025-10-15T05:14:51.601682+00:00,2.665000,-0.090060,
2025-10-15T05:14:51.606683+00:00,2.670000,-0.089300,
2025-10-15T05:14:51.611682+00:00,2.675000,-0.099560,
2025-10-15T05:14:51.616683+00:00,2.680000,-0.112100,
2025-10-15T05:14:51.621682+00:00,2.685000,-0.115140,
2025-10-15T05:14:51.626683+00:00,2.690000,-0.104880,
2025-10-15T05:14:51.631682+00:00,2.695000,-0.094240,
2025-10-15T05:14:51.636683+00:00,2.700000,-0.089300,
2025-10-15T05:14:51.641682+00:00,2.705000,-0.088160,
2025-10-15T05:14:51.646683+00:00,2.710000,-0.083600,
2025-10-15T05:14:51.651682+00:00,2.715000,-0.078660,
2025-10-15T05:14:51.656682+00:00,2.720000,-0.074480,
2025-10-15T05:14:51.661682+00:00,2.725000,-0.073720,
2025-10-15T05:14:51.666682+00:00,2.730000,-0.077900,
2025-10-15T05:14:51.671682+00:00,2.735000,-0.080940,
2025-10-15T05:14:51.676682+00:00,2.740000,-0.083220,
2025-10-15T05:14:51.681682+00:00,2.745000,-0.084360,
2025-10-15T05:14:51.686682+00:00,2.750000,-0.088540,
2025-10-15T05:14:51.691683+00:00,2.755000,-0.093100,
2025-10-15T05:14:51.696682+00:00,2.760000,-0.093100,
2025-10-15T05:14:51.701683+00:00,2.765000,-0.088160,
2025-10-15T05:14:51.706682+00:00,2.770000,-0.091580,
2025-10-15T05:14:51.711683+00:00,2.775000,-0.100700,
2025-10-15T05:14:51.716682+00:00,2.780000,-0.103740,
2025-10-15T05:14:51.721683+00:00,2.785000,-0.087780,
2025-10-15T05:14:51.726682+00:00,2.790000,-0.067640,
2025-10-15T05:14:51.731683+00:00,2.795000,-0.063460,
2025-10-15T05:14:51.736682+00:00,2.800000,-0.074860,
2025-10-15T05:14:51.741683+00:00,2.805000,-0.084360,
2025-10-15T05:14:51.746682+00:00,2.810000,-0.080940,
2025-10-15T05:14:51.751683+00:00,2.815000,-0.069540,
2025-10-15T05:14:51.756682+00:00,2.820000,-0.066880,
2025-10-15T05:14:51.761683+00:00,2.825000,-0.076380,
2025-10-15T05:14:51.766682+00:00,2.830000,-0.085120,
2025-10-15T05:14:51.771683+00:00,2.835000,-0.087020,
2025-10-15T05:14:51.776682+00:00,2.840000,-0.082460,
2025-10-15T05:14:51.781682+00:00,2.845000,-0.080560,
2025-10-15T05:14:51.786682+00:00,2.850000,-0.077140,
2025-10-15T05:14:51.791682+00:00,2.855000,-0.072960,
2025-10-15T05:14:51.796682+00:00,2.860000,-0.068400,
2025-10-15T05:14:51.801682+00:00,2.865000,-0.072960,
2025-10-15T05:14:51.806682+00:00,2.870000,-0.080940,
2025-10-15T05:14:51.811682+00:00,2.875000,-0.087020,
2025-10-15T05:14:51.816683+00:00,2.880000,-0.083600,
2025-10-15T05:14:51.821682+00:00,2.885000,-0.080560,
2025-10-15T05:14:51.826683+00:00,2.890000,-0.078660,
2025-10-15T05:14:51.831682+00:00,2.895000,-0.076000,
2025-10-15T05:14:51.836683+00:00,2.900000,-0.066880,
2025-10-15T05:14:51.841682+00:00,2.905000,-0.057000,
2025-10-15T05:14:51.846683+00:00,2.910000,-0.050920,
2025-10-15T05:14:51.851682+00:00,2.915000,-0.049020,
2025-10-15T05:14:51.856683+00:00,2.920000,-0.050540,
2025-10-15T05:14:51.861682+00:00,2.925000,-0.061180,
2025-10-15T05:14:51.866683+00:00,2.930000,-0.071060,
2025-10-15T05:14:51.871682+00:00,2.935000,-0.069540,
2025-10-15T05:14:51.876683+00:00,2.940000,-0.062700,
2025-10-15T05:14:51.881682+00:00,2.945000,-0.063080,
2025-10-15T05:14:51.886683+00:00,2.950000,-0.068020,
2025-10-15T05:14:51.891682+00:00,2.955000,-0.073340,
2025-10-15T05:14:51.896683+00:00,2.960000,-0.070300,
2025-10-15T05:14:51.901682+00:00,2.965000,-0.061560,
2025-10-15T05:14:51.906682+00:00,2.970000,-0.056620,
2025-10-15T05:14:51.911682+00:00,2.975000,-0.057760,
2025-10-15T05:14:51.916682+00:00,2.980000,-0.060040,
2025-10-15T05:14:51.921682+00:00,2.985000,-0.062700,
2025-10-15T05:14:51.926682+00:00,2.990000,-0.060040,
2025-10-15T05:14:51.931682+00:00,2.995000,-0.054720,
2025-10-15T05:14:51.936682+00:00,3.000000,-0.051680,
2025-10-15T05:14:51.941683+00:00,3.005000,-0.053960,
2025-10-15T05:14:51.946682+00:00,3.010000,-0.053960,
2025-10-15T05:14:51.951683+00:00,3.015000,-0.049400,
2025-10-15T05:14:51.956682+00:00,3.020000,-0.046360,
2025-10-15T05:14:51.961683+00:00,3.025000,-0.049020,
2025-10-15T05:14:51.966682+00:00,3.030000,-0.054340,
2025-10-15T05:14:51.971683+00:00,3.035000,-0.060420,
2025-10-15T05:14:51.976682+00:00,3.040000,-0.061180,
2025-10-15T05:14:51.981683+00:00,3.045000,-0.058520,
2025-10-15T05:14:51.986682+00:00,3.050000,-0.060040,
2025-10-15T05:14:51.991683+00:00,3.055000,-0.069160,
2025-10-15T05:14:51.996682+00:00,3.060000,-0.075240,
2025-10-15T05:14:52.001683+00:00,3.065000,-0.067260,
2025-10-15T05:14:52.006682+00:00,3.070000,-0.055480,
2025-10-15T05:14:52.011683+00:00,3.075000,-0.057000,
2025-10-15T05:14:52.016682+00:00,3.080000,-0.065360,
2025-10-15T05:14:52.021683+00:00,3.085000,-0.061560,
2025-10-15T05:14:52.026682+00:00,3.090000,-0.046740,
2025-10-15T05:14:52.031682+00:00,3.095000,-0.035720,
2025-10-15T05:14:52.036682+00:00,3.100000,-0.038380,
2025-10-15T05:14:52.041682+00:00,3.105000,-0.043320,
2025-10-15T05:14:52.046682+00:00,3.110000,-0.039140,
2025-10-15T05:14:52.051682+00:00,3.115000,-0.037620,
2025-10-15T05:14:52.056682+00:00,3.120000,-0.049780,
2025-10-15T05:14:52.061682+00:00,3.125000,-0.065740,
2025-10-15T05:14:52.066683+00:00,3.130000,-0.069160,
2025-10-15T05:14:52.071682+00:00,3.135000,-0.058140,
2025-10-15T05:14:52.076683+00:00,3.140000,-0.043320,
2025-10-15T05:14:52.081682+00:00,3.145000,-0.035720,
2025-10-15T05:14:52.086683+00:00,3.150000,-0.036480,
2025-10-15T05:14:52.091682+00:00,3.155000,-0.047120,
2025-10-15T05:14:52.096683+00:00,3.160000,-0.062320,
2025-10-15T05:14:52.101682+00:00,3.165000,-0.069160,
2025-10-15T05:14:52.106683+00:00,3.170000,-0.063840,
2025-10-15T05:14:52.111682+00:00,3.175000,-0.054340,
2025-10-15T05:14:52.116683+00:00,3.180000,-0.049400,
2025-10-15T05:14:52.121682+00:00,3.185000,-0.050540,
2025-10-15T05:14:52.126683+00:00,3.190000,-0.053200,
2025-10-15T05:14:52.131682+00:00,3.195000,-0.052820,
2025-10-15T05:14:52.136683+00:00,3.200000,-0.054340,
2025-10-15T05:14:52.141682+00:00,3.205000,-0.060420,
2025-10-15T05:14:52.146683+00:00,3.210000,-0.063460,
2025-10-15T05:14:52.151682+00:00,3.215000,-0.060040,
2025-10-15T05:14:52.156682+00:00,3.220000,-0.048640,
2025-10-15T05:14:52.161682+00:00,3.225000,-0.040280,
2025-10-15T05:14:52.166682+00:00,3.230000,-0.036860,
2025-10-15T05:14:52.171682+00:00,3.235000,-0.033440,
2025-10-15T05:14:52.176682+00:00,3.240000,-0.026600,
2025-10-15T05:14:52.181682+00:00,3.245000,-0.026980,
2025-10-15T05:14:52.186682+00:00,3.250000,-0.038760,
2025-10-15T05:14:52.191683+00:00,3.255000,-0.049780,
2025-10-15T05:14:52.196682+00:00,3.260000,-0.051680,
2025-10-15T05:14:52.201683+00:00,3.265000,-0.047880,
2025-10-15T05:14:52.206682+00:00,3.270000,-0.047500,
2025-10-15T05:14:52.211683+00:00,3.275000,-0.050160,
2025-10-15T05:14:52.216682+00:00,3.280000,-0.051680,
2025-10-15T05:14:52.221683+00:00,3.285000,-0.051300,
2025-10-15T05:14:52.226682+00:00,3.290000,-0.056240,
2025-10-15T05:14:52.231683+00:00,3.295000,-0.056620,
2025-10-15T05:14:52.236682+00:00,3.300000,-0.049020,
2025-10-15T05:14:52.241683+00:00,3.305000,-0.047120,
2025-10-15T05:14:52.246682+00:00,3.310000,-0.058520,
2025-10-15T05:14:52.251683+00:00,3.315000,-0.072580,
2025-10-15T05:14:52.256682+00:00,3.320000,-0.078280,
2025-10-15T05:14:52.261683+00:00,3.325000,-0.074860,
2025-10-15T05:14:52.266682+00:00,3.330000,-0.068780,
2025-10-15T05:14:52.271683+00:00,3.335000,-0.060420,
2025-10-15T05:14:52.276682+00:00,3.340000,-0.053960,
2025-10-15T05:14:52.281682+00:00,3.345000,-0.050540,
2025-10-15T05:14:52.286682+00:00,3.350000,-0.050920,
2025-10-15T05:14:52.291682+00:00,3.355000,-0.055480,
2025-10-15T05:14:52.296682+00:00,3.360000,-0.061940,
2025-10-15T05:14:52.301682+00:00,3.365000,-0.069160,
2025-10-15T05:14:52.306682+00:00,3.370000,-0.078660,
2025-10-15T05:14:52.311682+00:00,3.375000,-0.083220,
2025-10-15T05:14:52.316683+00:00,3.380000,-0.080180,
2025-10-15T05:14:52.321682+00:00,3.385000,-0.076000,
2025-10-15T05:14:52.326683+00:00,3.390000,-0.072200,
2025-10-15T05:14:52.331682+00:00,3.395000,-0.066880,
2025-10-15T05:14:52.336683+00:00,3.400000,-0.063460,
2025-10-15T05:14:52.341682+00:00,3.405000,-0.063840,
2025-10-15T05:14:52.346683+00:00,3.410000,-0.066500,
2025-10-15T05:14:52.351682+00:00,3.415000,-0.071820,
2025-10-15T05:14:52.356683+00:00,3.420000,-0.076760,
2025-10-15T05:14:52.361682+00:00,3.425000,-0.077140,
2025-10-15T05:14:52.366683+00:00,3.430000,-0.075240,
2025-10-15T05:14:52.371682+00:00,3.435000,-0.072960,
2025-10-15T05:14:52.376683+00:00,3.440000,-0.074480,
2025-10-15T05:14:52.381682+00:00,3.445000,-0.077520,
2025-10-15T05:14:52.386683+00:00,3.450000,-0.080560,
2025-10-15T05:14:52.391682+00:00,3.455000,-0.075620,
2025-10-15T05:14:52.396683+00:00,3.460000,-0.059280,
2025-10-15T05:14:52.401682+00:00,3.465000,-0.043320,
2025-10-15T05:14:52.406682+00:00,3.470000,-0.039520,
2025-10-15T05:14:52.411682+00:00,3.475000,-0.052820,
2025-10-15T05:14:52.416682+00:00,3.480000,-0.064980,
2025-10-15T05:14:52.421682+00:00,3.485000,-0.060040,
2025-10-15T05:14:52.426682+00:00,3.490000,-0.047120,
2025-10-15T05:14:52.431682+00:00,3.495000,-0.041420,
2025-10-15T05:14:52.436682+00:00,3.500000,-0.046360,
2025-10-15T05:14:52.441683+00:00,3.505000,-0.049020,
2025-10-15T05:14:52.446682+00:00,3.510000,-0.044080,
2025-10-15T05:14:52.451683+00:00,3.515000,-0.036860,
2025-10-15T05:14:52.456682+00:00,3.520000,-0.036480,
2025-10-15T05:14:52.461683+00:00,3.525000,-0.041040,
2025-10-15T05:14:52.466682+00:00,3.530000,-0.042560,
2025-10-15T05:14:52.471683+00:00,3.535000,-0.038760,
2025-10-15T05:14:52.476682+00:00,3.540000,-0.036860,
2025-10-15T05:14:52.481683+00:00,3.545000,-0.036480,
2025-10-15T05:14:52.486682+00:00,3.550000,-0.034200,
2025-10-15T05:14:52.491683+00:00,3.555000,-0.023180,
2025-10-15T05:14:52.496682+00:00,3.560000,-0.014440,
2025-10-15T05:14:52.501683+00:00,3.565000,-0.012160,
2025-10-15T05:14:52.506682+00:00,3.570000,-0.021280,
2025-10-15T05:14:52.511683+00:00,3.575000,-0.035720,
2025-10-15T05:14:52.516682+00:00,3.580000,-0.037620,
2025-10-15T05:14:52.521683+00:00,3.585000,-0.021660,
2025-10-15T05:14:52.526682+00:00,3.590000,-0.007600,
2025-10-15T05:14:52.531682+00:00,3.595000,-0.012540,
2025-10-15T05:14:52.536682+00:00,3.600000,-0.032680,
2025-10-15T05:14:52.541682+00:00,3.605000,-0.042180,
2025-10-15T05:14:52.546682+00:00,3.610000,-0.036100,
2025-10-15T05:14:52.551682+00:00,3.615000,-0.028880,
2025-10-15T05:14:52.556682+00:00,3.620000,-0.034580,
2025-10-15T05:14:52.561682+00:00,3.625000,-0.039140,
2025-10-15T05:14:52.566683+00:00,3.630000,-0.027740,
2025-10-15T05:14:52.571682+00:00,3.635000,-0.016340,
2025-10-15T05:14:52.576683+00:00,3.640000,-0.024700,
2025-10-15T05:14:52.581682+00:00,3.645000,-0.039140,
2025-10-15T05:14:52.586683+00:00,3.650000,-0.045980,
2025-10-15T05:14:52.591682+00:00,3.655000,-0.046360,
2025-10-15T05:14:52.596683+00:00,3.660000,-0.050920,
2025-10-15T05:14:52.601682+00:00,3.665000,-0.056240,
2025-10-15T05:14:52.606683+00:00,3.670000,-0.062320,
2025-10-15T05:14:52.611682+00:00,3.675000,-0.065740,
2025-10-15T05:14:52.616683+00:00,3.680000,-0.068780,
2025-10-15T05:14:52.621682+00:00,3.685000,-0.068020,
2025-10-15T05:14:52.626683+00:00,3.690000,-0.064220,
2025-10-15T05:14:52.631682+00:00,3.695000,-0.059280,
2025-10-15T05:14:52.636683+00:00,3.700000,-0.061180,
2025-10-15T05:14:52.641682+00:00,3.705000,-0.072200,
2025-10-15T05:14:52.646683+00:00,3.710000,-0.084740,
2025-10-15T05:14:52.651682+00:00,3.715000,-0.085120,
2025-10-15T05:14:52.656682+00:00,3.720000,-0.071060,
2025-10-15T05:14:52.661682+00:00,3.725000,-0.055100,
2025-10-15T05:14:52.666682+00:00,3.730000,-0.046740,
2025-10-15T05:14:52.671682+00:00,3.735000,-0.049400,
2025-10-15T05:14:52.676682+00:00,3.740000,-0.047880,
2025-10-15T05:14:52.681682+00:00,3.745000,-0.038760,
2025-10-15T05:14:52.686682+00:00,3.750000,-0.028880,
2025-10-15T05:14:52.691683+00:00,3.755000,-0.026980,
2025-10-15T05:14:52.696682+00:00,3.760000,-0.027360,
2025-10-15T05:14:52.701683+00:00,3.765000,-0.023940,
2025-10-15T05:14:52.706682+00:00,3.770000,-0.028120,
2025-10-15T05:14:52.711683+00:00,3.775000,-0.046360,
2025-10-15T05:14:52.716682+00:00,3.780000,-0.064220,
2025-10-15T05:14:52.721683+00:00,3.785000,-0.061560,
2025-10-15T05:14:52.726682+00:00,3.790000,-0.043320,
2025-10-15T05:14:52.731683+00:00,3.795000,-0.033820,
2025-10-15T05:14:52.736682+00:00,3.800000,-0.045980,
2025-10-15T05:14:52.741683+00:00,3.805000,-0.060800,
2025-10-15T05:14:52.746682+00:00,3.810000,-0.055480,
2025-10-15T05:14:52.751683+00:00,3.815000,-0.041040,
2025-10-15T05:14:52.756682+00:00,3.820000,-0.037620,
2025-10-15T05:14:52.761683+00:00,3.825000,-0.049400,
2025-10-15T05:14:52.766682+00:00,3.830000,-0.062320,
2025-10-15T05:14:52.771683+00:00,3.835000,-0.070300,
2025-10-15T05:14:52.776682+00:00,3.840000,-0.072200,
2025-10-15T05:14:52.781682+00:00,3.845000,-0.068780,
2025-10-15T05:14:52.786682+00:00,3.850000,-0.061180,
2025-10-15T05:14:52.791682+00:00,3.855000,-0.055860,
2025-10-15T05:14:52.796682+00:00,3.860000,-0.051680,
2025-10-15T05:14:52.801682+00:00,3.865000,-0.044840,
2025-10-15T05:14:52.806682+00:00,3.870000,-0.039140,
2025-10-15T05:14:52.811682+00:00,3.875000,-0.038760,
2025-10-15T05:14:52.816683+00:00,3.880000,-0.041800,
2025-10-15T05:14:52.821682+00:00,3.885000,-0.048640,
2025-10-15T05:14:52.826683+00:00,3.890000,-0.057000,
2025-10-15T05:14:52.831682+00:00,3.895000,-0.056240,
2025-10-15T05:14:52.836683+00:00,3.900000,-0.044080,
2025-10-15T05:14:52.841682+00:00,3.905000,-0.030400,
2025-10-15T05:14:52.846683+00:00,3.910000,-0.028500,
2025-10-15T05:14:52.851682+00:00,3.915000,-0.039520,
2025-10-15T05:14:52.856683+00:00,3.920000,-0.054720,
2025-10-15T05:14:52.861682+00:00,3.925000,-0.058140,
2025-10-15T05:14:52.866683+00:00,3.930000,-0.045980,
2025-10-15T05:14:52.871682+00:00,3.935000,-0.029260,
2025-10-15T05:14:52.876683+00:00,3.940000,-0.023560,
2025-10-15T05:14:52.881682+00:00,3.945000,-0.031540,
2025-10-15T05:14:52.886683+00:00,3.950000,-0.042180,
2025-10-15T05:14:52.891682+00:00,3.955000,-0.044840,
2025-10-15T05:14:52.896683+00:00,3.960000,-0.044080,
2025-10-15T05:14:52.901682+00:00,3.965000,-0.050540,
2025-10-15T05:14:52.906682+00:00,3.970000,-0.055860,
2025-10-15T05:14:52.911682+00:00,3.975000,-0.047880,
2025-10-15T05:14:52.916682+00:00,3.980000,-0.035720,
2025-10-15T05:14:52.921682+00:00,3.985000,-0.034580,
2025-10-15T05:14:52.926682+00:00,3.990000,-0.044840,
2025-10-15T05:14:52.931682+00:00,3.995000,-0.051680,
2025-10-15T05:14:52.936682+00:00,4.000000,-0.053960,
2025-10-15T05:14:52.941683+00:00,4.005000,-0.059660,
2025-10-15T05:14:52.946682+00:00,4.010000,-0.060800,
2025-10-15T05:14:52.951683+00:00,4.015000,-0.053960,
2025-10-15T05:14:52.956682+00:00,4.020000,-0.047120,
2025-10-15T05:14:52.961683+00:00,4.025000,-0.050540,
2025-10-15T05:14:52.966682+00:00,4.030000,-0.060420,
2025-10-15T05:14:52.971683+00:00,4.035000,-0.068400,
2025-10-15T05:14:52.976682+00:00,4.040000,-0.069540,
2025-10-15T05:14:52.981683+00:00,4.045000,-0.064600,
2025-10-15T05:14:52.986682+00:00,4.050000,-0.059280,
2025-10-15T05:14:52.991683+00:00,4.055000,-0.060420,
2025-10-15T05:14:52.996682+00:00,4.060000,-0.061560,
2025-10-15T05:14:53.001683+00:00,4.065000,-0.056620,
2025-10-15T05:14:53.006682+00:00,4.070000,-0.049780,
2025-10-15T05:14:53.011683+00:00,4.075000,-0.052060,
2025-10-15T05:14:53.016682+00:00,4.080000,-0.056620,
2025-10-15T05:14:53.021683+00:00,4.085000,-0.049400,
2025-10-15T05:14:53.026682+00:00,4.090000,-0.033820,
2025-10-15T05:14:53.031682+00:00,4.095000,-0.029640,
2025-10-15T05:14:53.036682+00:00,4.100000,-0.044080,
2025-10-15T05:14:53.041682+00:00,4.105000,-0.059280,
2025-10-15T05:14:53.046682+00:00,4.110000,-0.060040,
2025-10-15T05:14:53.051682+00:00,4.115000,-0.054720,
2025-10-15T05:14:53.056682+00:00,4.120000,-0.055480,
2025-10-15T05:14:53.061682+00:00,4.125000,-0.055100,
2025-10-15T05:14:53.066683+00:00,4.130000,-0.048640,
2025-10-15T05:14:53.071682+00:00,4.135000,-0.045980,
2025-10-15T05:14:53.076683+00:00,4.140000,-0.043700,
2025-10-15T05:14:53.081682+00:00,4.145000,-0.038000,
2025-10-15T05:14:53.086683+00:00,4.150000,-0.032300,
2025-10-15T05:14:53.091682+00:00,4.155000,-0.036480,
2025-10-15T05:14:53.096683+00:00,4.160000,-0.044460,
2025-10-15T05:14:53.101682+00:00,4.165000,-0.045980,
2025-10-15T05:14:53.106683+00:00,4.170000,-0.041420,
2025-10-15T05:14:53.111682+00:00,4.175000,-0.039520,
2025-10-15T05:14:53.116683+00:00,4.180000,-0.043320,
2025-10-15T05:14:53.121682+00:00,4.185000,-0.046360,
2025-10-15T05:14:53.126683+00:00,4.190000,-0.043320,
2025-10-15T05:14:53.131682+00:00,4.195000,-0.036480,
2025-10-15T05:14:53.136683+00:00,4.200000,-0.030020,
2025-10-15T05:14:53.141682+00:00,4.205000,-0.032300,
2025-10-15T05:14:53.146683+00:00,4.210000,-0.040660,
2025-10-15T05:14:53.151682+00:00,4.215000,-0.041800,
2025-10-15T05:14:53.156682+00:00,4.220000,-0.031540,
2025-10-15T05:14:53.161682+00:00,4.225000,-0.024320,
2025-10-15T05:14:53.166682+00:00,4.230000,-0.033060,
2025-10-15T05:14:53.171682+00:00,4.235000,-0.047120,
2025-10-15T05:14:53.176682+00:00,4.240000,-0.048640,
2025-10-15T05:14:53.181682+00:00,4.245000,-0.030020,
2025-10-15T05:14:53.186682+00:00,4.250000,-0.009500,
2025-10-15T05:14:53.191683+00:00,4.255000,-0.005700,
2025-10-15T05:14:53.196682+00:00,4.260000,-0.015200,
2025-10-15T05:14:53.201683+00:00,4.265000,-0.027360,
2025-10-15T05:14:53.206682+00:00,4.270000,-0.041800,
2025-10-15T05:14:53.211683+00:00,4.275000,-0.056240,
2025-10-15T05:14:53.216682+00:00,4.280000,-0.053580,
2025-10-15T05:14:53.221683+00:00,4.285000,-0.040280,
2025-10-15T05:14:53.226682+00:00,4.290000,-0.036860,
2025-10-15T05:14:53.231683+00:00,4.295000,-0.048260,
2025-10-15T05:14:53.236682+00:00,4.300000,-0.057380,
2025-10-15T05:14:53.241683+00:00,4.305000,-0.049020,
2025-10-15T05:14:53.246682+00:00,4.310000,-0.030400,
2025-10-15T05:14:53.251683+00:00,4.315000,-0.021660,
2025-10-15T05:14:53.256682+00:00,4.320000,-0.031920,
2025-10-15T05:14:53.261683+00:00,4.325000,-0.045980,
2025-10-15T05:14:53.266682+00:00,4.330000,-0.052060,
2025-10-15T05:14:53.271683+00:00,4.335000,-0.052440,
2025-10-15T05:14:53.276682+00:00,4.340000,-0.061560,
2025-10-15T05:14:53.281682+00:00,4.345000,-0.069160,
2025-10-15T05:14:53.286682+00:00,4.350000,-0.062320,
2025-10-15T05:14:53.291682+00:00,4.355000,-0.043320,
2025-10-15T05:14:53.296682+00:00,4.360000,-0.029260,
2025-10-15T05:14:53.301682+00:00,4.365000,-0.028880,
2025-10-15T05:14:53.306682+00:00,4.370000,-0.034960,
2025-10-15T05:14:53.311682+00:00,4.375000,-0.039900,
2025-10-15T05:14:53.316683+00:00,4.380000,-0.044080,
2025-10-15T05:14:53.321682+00:00,4.385000,-0.050540,
2025-10-15T05:14:53.326683+00:00,4.390000,-0.048260,
2025-10-15T05:14:53.331682+00:00,4.395000,-0.042560,
2025-10-15T05:14:53.336683+00:00,4.400000,-0.042940,
2025-10-15T05:14:53.341682+00:00,4.405000,-0.046360,
2025-10-15T05:14:53.346683+00:00,4.410000,-0.044080,
2025-10-15T05:14:53.351682+00:00,4.415000,-0.037620,
2025-10-15T05:14:53.356683+00:00,4.420000,-0.043320,
2025-10-15T05:14:53.361682+00:00,4.425000,-0.055100,
2025-10-15T05:14:53.366683+00:00,4.430000,-0.054340,
2025-10-15T05:14:53.371682+00:00,4.435000,-0.041420,
2025-10-15T05:14:53.376683+00:00,4.440000,-0.038760,
2025-10-15T05:14:53.381682+00:00,4.445000,-0.051680,
2025-10-15T05:14:53.386683+00:00,4.450000,-0.059660,
2025-10-15T05:14:53.391682+00:00,4.455000,-0.053200,
2025-10-15T05:14:53.396683+00:00,4.460000,-0.041420,
2025-10-15T05:14:53.401682+00:00,4.465000,-0.039140,
2025-10-15T05:14:53.406682+00:00,4.470000,-0.041800,
2025-10-15T05:14:53.411682+00:00,4.475000,-0.044460,
2025-10-15T05:14:53.416682+00:00,4.480000,-0.043700,
2025-10-15T05:14:53.421682+00:00,4.485000,-0.041040,
2025-10-15T05:14:53.426682+00:00,4.490000,-0.038000,
2025-10-15T05:14:53.431682+00:00,4.495000,-0.041420,
2025-10-15T05:14:53.436682+00:00,4.500000,-0.054720,
2025-10-15T05:14:53.441683+00:00,4.505000,-0.064600,
2025-10-15T05:14:53.446682+00:00,4.510000,-0.062700,
2025-10-15T05:14:53.451683+00:00,4.515000,-0.056620,
2025-10-15T05:14:53.456682+00:00,4.520000,-0.058520,
2025-10-15T05:14:53.461683+00:00,4.525000,-0.066120,
2025-10-15T05:14:53.466682+00:00,4.530000,-0.068020,
2025-10-15T05:14:53.471683+00:00,4.535000,-0.063460,
2025-10-15T05:14:53.476682+00:00,4.540000,-0.061560,
2025-10-15T05:14:53.481683+00:00,4.545000,-0.062320,
2025-10-15T05:14:53.486682+00:00,4.550000,-0.061940,
2025-10-15T05:14:53.491683+00:00,4.555000,-0.060800,
2025-10-15T05:14:53.496682+00:00,4.560000,-0.056620,
2025-10-15T05:14:53.501683+00:00,4.565000,-0.042940,
2025-10-15T05:14:53.506682+00:00,4.570000,-0.026980,
2025-10-15T05:14:53.511683+00:00,4.575000,-0.026220,
2025-10-15T05:14:53.516682+00:00,4.580000,-0.042560,
2025-10-15T05:14:53.521683+00:00,4.585000,-0.057380,
2025-10-15T05:14:53.526682+00:00,4.590000,-0.058140,
2025-10-15T05:14:53.531682+00:00,4.595000,-0.051680,
2025-10-15T05:14:53.536682+00:00,4.600000,-0.048640,
2025-10-15T05:14:53.541682+00:00,4.605000,-0.050540,
2025-10-15T05:14:53.546682+00:00,4.610000,-0.047500,
2025-10-15T05:14:53.551682+00:00,4.615000,-0.043700,
2025-10-15T05:14:53.556682+00:00,4.620000,-0.049780,
2025-10-15T05:14:53.561682+00:00,4.625000,-0.063080,
2025-10-15T05:14:53.566683+00:00,4.630000,-0.065360,
2025-10-15T05:14:53.571682+00:00,4.635000,-0.056240,
2025-10-15T05:14:53.576683+00:00,4.640000,-0.046360,
2025-10-15T05:14:53.581682+00:00,4.645000,-0.044840,
2025-10-15T05:14:53.586683+00:00,4.650000,-0.050160,
2025-10-15T05:14:53.591682+00:00,4.655000,-0.058520,
2025-10-15T05:14:53.596683+00:00,4.660000,-0.063080,
2025-10-15T05:14:53.601682+00:00,4.665000,-0.066880,
2025-10-15T05:14:53.606683+00:00,4.670000,-0.068400,
2025-10-15T05:14:53.611682+00:00,4.675000,-0.064600,
2025-10-15T05:14:53.616683+00:00,4.680000,-0.055100,
2025-10-15T05:14:53.621682+00:00,4.685000,-0.047880,
2025-10-15T05:14:53.626683+00:00,4.690000,-0.045980,
2025-10-15T05:14:53.631682+00:00,4.695000,-0.047120,
2025-10-15T05:14:53.636683+00:00,4.700000,-0.046360,
2025-10-15T05:14:53.641682+00:00,4.705000,-0.040660,
2025-10-15T05:14:53.646683+00:00,4.710000,-0.032300,
2025-10-15T05:14:53.651682+00:00,4.715000,-0.029640,
2025-10-15T05:14:53.656682+00:00,4.720000,-0.039520,
2025-10-15T05:14:53.661682+00:00,4.725000,-0.049020,
2025-10-15T05:14:53.666682+00:00,4.730000,-0.052440,
2025-10-15T05:14:53.671682+00:00,4.735000,-0.048260,
2025-10-15T05:14:53.676682+00:00,4.740000,-0.044460,
2025-10-15T05:14:53.681682+00:00,4.745000,-0.043700,
2025-10-15T05:14:53.686682+00:00,4.750000,-0.047120,
2025-10-15T05:14:53.691683+00:00,4.755000,-0.050540,
2025-10-15T05:14:53.696682+00:00,4.760000,-0.053200,
2025-10-15T05:14:53.701683+00:00,4.765000,-0.056620,
2025-10-15T05:14:53.706682+00:00,4.770000,-0.059280,
2025-10-15T05:14:53.711683+00:00,4.775000,-0.050160,
2025-10-15T05:14:53.716682+00:00,4.780000,-0.033060,
2025-10-15T05:14:53.721683+00:00,4.785000,-0.021280,
2025-10-15T05:14:53.726682+00:00,4.790000,-0.025080,
2025-10-15T05:14:53.731683+00:00,4.795000,-0.041040,
2025-10-15T05:14:53.736682+00:00,4.800000,-0.055480,
2025-10-15T05:14:53.741683+00:00,4.805000,-0.060040,
2025-10-15T05:14:53.746682+00:00,4.810000,-0.058140,
2025-10-15T05:14:53.751683+00:00,4.815000,-0.055860,
2025-10-15T05:14:53.756682+00:00,4.820000,-0.051680,
2025-10-15T05:14:53.761683+00:00,4.825000,-0.039520,
2025-10-15T05:14:53.766682+00:00,4.830000,-0.025840,
2025-10-15T05:14:53.771683+00:00,4.835000,-0.023560,
2025-10-15T05:14:53.776682+00:00,4.840000,-0.035720,
2025-10-15T05:14:53.781682+00:00,4.845000,-0.049780,
2025-10-15T05:14:53.786682+00:00,4.850000,-0.051680,
2025-10-15T05:14:53.791682+00:00,4.855000,-0.048260,
2025-10-15T05:14:53.796682+00:00,4.860000,-0.047880,
2025-10-15T05:14:53.801682+00:00,4.865000,-0.047500,
2025-10-15T05:14:53.806682+00:00,4.870000,-0.038000,
2025-10-15T05:14:53.811682+00:00,4.875000,-0.026980,
2025-10-15T05:14:53.816683+00:00,4.880000,-0.022040,
2025-10-15T05:14:53.821682+00:00,4.885000,-0.024700,
2025-10-15T05:14:53.826683+00:00,4.890000,-0.028880,
2025-10-15T05:14:53.831682+00:00,4.895000,-0.026220,
2025-10-15T05:14:53.836683+00:00,4.900000,-0.018240,
2025-10-15T05:14:53.841682+00:00,4.905000,-0.020140,
2025-10-15T05:14:53.846683+00:00,4.910000,-0.029640,
2025-10-15T05:14:53.851682+00:00,4.915000,-0.036860,
2025-10-15T05:14:53.856683+00:00,4.920000,-0.037620,
2025-10-15T05:14:53.861682+00:00,4.925000,-0.036860,
2025-10-15T05:14:53.866683+00:00,4.930000,-0.034580,
2025-10-15T05:14:53.871682+00:00,4.935000,-0.030020,
2025-10-15T05:14:53.876683+00:00,4.940000,-0.031160,
2025-10-15T05:14:53.881682+00:00,4.945000,-0.038000,
2025-10-15T05:14:53.886683+00:00,4.950000,-0.046360,
2025-10-15T05:14:53.891682+00:00,4.955000,-0.049400,
2025-10-15T05:14:53.896683+00:00,4.960000,-0.042560,
2025-10-15T05:14:53.901682+00:00,4.965000,-0.036860,
2025-10-15T05:14:53.906682+00:00,4.970000,-0.038760,
2025-10-15T05:14:53.911682+00:00,4.975000,-0.042180,
2025-10-15T05:14:53.916682+00:00,4.980000,-0.041420,
2025-10-15T05:14:53.921682+00:00,4.985000,-0.040280,
2025-10-15T05:14:53.926682+00:00,4.990000,-0.038760,
2025-10-15T05:14:53.931682+00:00,4.995000,-0.036860,
2025-10-15T05:14:53.936682+00:00,5.000000,-0.037240,
2025-10-15T05:14:53.941683+00:00,5.005000,-0.043700,
2025-10-15T05:14:53.946682+00:00,5.010000,-0.050160,
2025-10-15T05:14:53.951683+00:00,5.015000,-0.049400,
2025-10-15T05:14:53.956682+00:00,5.020000,-0.042940,
2025-10-15T05:14:53.961683+00:00,5.025000,-0.041040,
2025-10-15T05:14:53.966682+00:00,5.030000,-0.047120,
2025-10-15T05:14:53.971683+00:00,5.035000,-0.053580,
2025-10-15T05:14:53.976682+00:00,5.040000,-0.053960,
2025-10-15T05:14:53.981683+00:00,5.045000,-0.053200,
2025-10-15T05:14:53.986682+00:00,5.050000,-0.053960,
2025-10-15T05:14:53.991683+00:00,5.055000,-0.047880,
2025-10-15T05:14:53.996682+00:00,5.060000,-0.034960,
2025-10-15T05:14:54.001683+00:00,5.065000,-0.029640,
2025-10-15T05:14:54.006682+00:00,5.070000,-0.041040,
2025-10-15T05:14:54.011683+00:00,5.075000,-0.060040,
2025-10-15T05:14:54.016682+00:00,5.080000,-0.064220,
2025-10-15T05:14:54.021683+00:00,5.085000,-0.053580,
2025-10-15T05:14:54.026682+00:00,5.090000,-0.046740,
2025-10-15T05:14:54.031682+00:00,5.095000,-0.050160,
2025-10-15T05:14:54.036682+00:00,5.100000,-0.056240,
2025-10-15T05:14:54.041682+00:00,5.105000,-0.055480,
2025-10-15T05:14:54.046682+00:00,5.110000,-0.048260,
2025-10-15T05:14:54.051682+00:00,5.115000,-0.040660,
2025-10-15T05:14:54.056682+00:00,5.120000,-0.036480,
2025-10-15T05:14:54.061682+00:00,5.125000,-0.041420,
2025-10-15T05:14:54.066683+00:00,5.130000,-0.051300,
2025-10-15T05:14:54.071682+00:00,5.135000,-0.055860,
2025-10-15T05:14:54.076683+00:00,5.140000,-0.049780,
2025-10-15T05:14:54.081682+00:00,5.145000,-0.039520,
2025-10-15T05:14:54.086683+00:00,5.150000,-0.035720,
2025-10-15T05:14:54.091682+00:00,5.155000,-0.041040,
2025-10-15T05:14:54.096683+00:00,5.160000,-0.048260,
2025-10-15T05:14:54.101682+00:00,5.165000,-0.049400,
2025-10-15T05:14:54.106683+00:00,5.170000,-0.040660,
2025-10-15T05:14:54.111682+00:00,5.175000,-0.031920,
2025-10-15T05:14:54.116683+00:00,5.180000,-0.028500,
2025-10-15T05:14:54.121682+00:00,5.185000,-0.039520,
2025-10-15T05:14:54.126683+00:00,5.190000,-0.054340,
2025-10-15T05:14:54.131682+00:00,5.195000,-0.064980,
2025-10-15T05:14:54.136683+00:00,5.200000,-0.071440,
2025-10-15T05:14:54.141682+00:00,5.205000,-0.076380,
2025-10-15T05:14:54.146683+00:00,5.210000,-0.072200,
2025-10-15T05:14:54.151682+00:00,5.215000,-0.061560,
2025-10-15T05:14:54.156682+00:00,5.220000,-0.052440,
2025-10-15T05:14:54.161682+00:00,5.225000,-0.053200,
2025-10-15T05:14:54.166682+00:00,5.230000,-0.050160,
2025-10-15T05:14:54.171682+00:00,5.235000,-0.040660,
2025-10-15T05:14:54.176682+00:00,5.240000,-0.034580,
2025-10-15T05:14:54.181682+00:00,5.245000,-0.043320,
2025-10-15T05:14:54.186682+00:00,5.250000,-0.054340,
2025-10-15T05:14:54.191683+00:00,5.255000,-0.051680,
2025-10-15T05:14:54.196682+00:00,5.260000,-0.042560,
2025-10-15T05:14:54.201683+00:00,5.265000,-0.041800,
2025-10-15T05:14:54.206682+00:00,5.270000,-0.049020,
2025-10-15T05:14:54.211683+00:00,5.275000,-0.050920,
2025-10-15T05:14:54.216682+00:00,5.280000,-0.044080,
2025-10-15T05:14:54.221683+00:00,5.285000,-0.037620,
2025-10-15T05:14:54.226682+00:00,5.290000,-0.032680,
2025-10-15T05:14:54.231683+00:00,5.295000,-0.029640,
2025-10-15T05:14:54.236682+00:00,5.300000,-0.032300,
2025-10-15T05:14:54.241683+00:00,5.305000,-0.041800,
2025-10-15T05:14:54.246682+00:00,5.310000,-0.049020,
2025-10-15T05:14:54.251683+00:00,5.315000,-0.044080,
2025-10-15T05:14:54.256682+00:00,5.320000,-0.032300,
2025-10-15T05:14:54.261683+00:00,5.325000,-0.027360,
2025-10-15T05:14:54.266682+00:00,5.330000,-0.029260,
2025-10-15T05:14:54.271683+00:00,5.335000,-0.034200,
2025-10-15T05:14:54.276682+00:00,5.340000,-0.036100,
2025-10-15T05:14:54.281682+00:00,5.345000,-0.037620,
2025-10-15T05:14:54.286682+00:00,5.350000,-0.044840,
2025-10-15T05:14:54.291682+00:00,5.355000,-0.054340,
2025-10-15T05:14:54.296682+00:00,5.360000,-0.057380,
2025-10-15T05:14:54.301682+00:00,5.365000,-0.050160,
2025-10-15T05:14:54.306682+00:00,5.370000,-0.037620,
2025-10-15T05:14:54.311682+00:00,5.375000,-0.031540,
2025-10-15T05:14:54.316683+00:00,5.380000,-0.037620,
2025-10-15T05:14:54.321682+00:00,5.385000,-0.047120,
2025-10-15T05:14:54.326683+00:00,5.390000,-0.049780,
2025-10-15T05:14:54.331682+00:00,5.395000,-0.033060,
2025-10-15T05:14:54.336683+00:00,5.400000,-0.012160,
2025-10-15T05:14:54.341682+00:00,5.405000,-0.006080,
2025-10-15T05:14:54.346683+00:00,5.410000,-0.019760,
2025-10-15T05:14:54.351682+00:00,5.415000,-0.036860,
2025-10-15T05:14:54.356683+00:00,5.420000,-0.042560,
2025-10-15T05:14:54.361682+00:00,5.425000,-0.041800,
2025-10-15T05:14:54.366683+00:00,5.430000,-0.047880,
2025-10-15T05:14:54.371682+00:00,5.435000,-0.056620,
2025-10-15T05:14:54.376683+00:00,5.440000,-0.060040,
2025-10-15T05:14:54.381682+00:00,5.445000,-0.053580,
2025-10-15T05:14:54.386683+00:00,5.450000,-0.045980,
2025-10-15T05:14:54.391682+00:00,5.455000,-0.040280,
2025-10-15T05:14:54.396683+00:00,5.460000,-0.039520,
2025-10-15T05:14:54.401682+00:00,5.465000,-0.042940,
2025-10-15T05:14:54.406682+00:00,5.470000,-0.046740,
2025-10-15T05:14:54.411682+00:00,5.475000,-0.042560,
2025-10-15T05:14:54.416682+00:00,5.480000,-0.033440,
2025-10-15T05:14:54.421682+00:00,5.485000,-0.026220,
2025-10-15T05:14:54.426682+00:00,5.490000,-0.025840,
2025-10-15T05:14:54.431682+00:00,5.495000,-0.023180,
2025-10-15T05:14:54.436682+00:00,5.500000,-0.016720,
2025-10-15T05:14:54.441683+00:00,5.505000,-0.015580,
2025-10-15T05:14:54.446682+00:00,5.510000,-0.028880,
2025-10-15T05:14:54.451683+00:00,5.515000,-0.042560,
2025-10-15T05:14:54.456682+00:00,5.520000,-0.045600,
2025-10-15T05:14:54.461683+00:00,5.525000,-0.044840,
2025-10-15T05:14:54.466682+00:00,5.530000,-0.055860,
2025-10-15T05:14:54.471683+00:00,5.535000,-0.070300,
2025-10-15T05:14:54.476682+00:00,5.540000,-0.077900,
2025-10-15T05:14:54.481683+00:00,5.545000,-0.068780,
2025-10-15T05:14:54.486682+00:00,5.550000,-0.047880,
2025-10-15T05:14:54.491683+00:00,5.555000,-0.027360,
2025-10-15T05:14:54.496682+00:00,5.560000,-0.020140,
2025-10-15T05:14:54.501683+00:00,5.565000,-0.031920,
2025-10-15T05:14:54.506682+00:00,5.570000,-0.052440,
2025-10-15T05:14:54.511683+00:00,5.575000,-0.058900,
2025-10-15T05:14:54.516682+00:00,5.580000,-0.050920,
2025-10-15T05:14:54.521683+00:00,5.585000,-0.044460,
2025-10-15T05:14:54.526682+00:00,5.590000,-0.047500,
2025-10-15T05:14:54.531682+00:00,5.595000,-0.045980,
2025-10-15T05:14:54.536682+00:00,5.600000,-0.036480,
2025-10-15T05:14:54.541682+00:00,5.605000,-0.024700,
2025-10-15T05:14:54.546682+00:00,5.610000,-0.023180,
2025-10-15T05:14:54.551682+00:00,5.615000,-0.031160,
2025-10-15T05:14:54.556682+00:00,5.620000,-0.035720,
2025-10-15T05:14:54.561682+00:00,5.625000,-0.034580,
2025-10-15T05:14:54.566683+00:00,5.630000,-0.037620,
2025-10-15T05:14:54.571682+00:00,5.635000,-0.050540,
2025-10-15T05:14:54.576683+00:00,5.640000,-0.058520,
2025-10-15T05:14:54.581682+00:00,5.645000,-0.052820,
2025-10-15T05:14:54.586683+00:00,5.650000,-0.039900,
2025-10-15T05:14:54.591682+00:00,5.655000,-0.036100,
2025-10-15T05:14:54.596683+00:00,5.660000,-0.040660,
2025-10-15T05:14:54.601682+00:00,5.665000,-0.042560,
2025-10-15T05:14:54.606683+00:00,5.670000,-0.042560,
2025-10-15T05:14:54.611682+00:00,5.675000,-0.048640,
2025-10-15T05:14:54.616683+00:00,5.680000,-0.055480,
2025-10-15T05:14:54.621682+00:00,5.685000,-0.054720,
2025-10-15T05:14:54.626683+00:00,5.690000,-0.044460,
2025-10-15T05:14:54.631682+00:00,5.695000,-0.038760,
2025-10-15T05:14:54.636683+00:00,5.700000,-0.044840,
2025-10-15T05:14:54.641682+00:00,5.705000,-0.059660,
2025-10-15T05:14:54.646683+00:00,5.710000,-0.069920,
2025-10-15T05:14:54.651682+00:00,5.715000,-0.074860,
2025-10-15T05:14:54.656682+00:00,5.720000,-0.072580,
2025-10-15T05:14:54.661682+00:00,5.725000,-0.064980,
2025-10-15T05:14:54.666682+00:00,5.730000,-0.055100,
2025-10-15T05:14:54.671682+00:00,5.735000,-0.046360,
2025-10-15T05:14:54.676682+00:00,5.740000,-0.047880,
2025-10-15T05:14:54.681682+00:00,5.745000,-0.054340,
2025-10-15T05:14:54.686682+00:00,5.750000,-0.057000,
2025-10-15T05:14:54.691683+00:00,5.755000,-0.054720,
2025-10-15T05:14:54.696682+00:00,5.760000,-0.048260,
2025-10-15T05:14:54.701683+00:00,5.765000,-0.045980,
2025-10-15T05:14:54.706682+00:00,5.770000,-0.043700,
2025-10-15T05:14:54.711683+00:00,5.775000,-0.039900,
2025-10-15T05:14:54.716682+00:00,5.780000,-0.036480,
2025-10-15T05:14:54.721683+00:00,5.785000,-0.035720,
2025-10-15T05:14:54.726682+00:00,5.790000,-0.041800,
2025-10-15T05:14:54.731683+00:00,5.795000,-0.052060,
2025-10-15T05:14:54.736682+00:00,5.800000,-0.062320,
2025-10-15T05:14:54.741683+00:00,5.805000,-0.061940,
2025-10-15T05:14:54.746682+00:00,5.810000,-0.045220,
2025-10-15T05:14:54.751683+00:00,5.815000,-0.028500,
2025-10-15T05:14:54.756682+00:00,5.820000,-0.029260,
2025-10-15T05:14:54.761683+00:00,5.825000,-0.040660,
2025-10-15T05:14:54.766682+00:00,5.830000,-0.045980,
2025-10-15T05:14:54.771683+00:00,5.835000,-0.047120,
2025-10-15T05:14:54.776682+00:00,5.840000,-0.049780,
2025-10-15T05:14:54.781682+00:00,5.845000,-0.055100,
2025-10-15T05:14:54.786682+00:00,5.850000,-0.055100,
2025-10-15T05:14:54.791682+00:00,5.855000,-0.051300,
2025-10-15T05:14:54.796682+00:00,5.860000,-0.046360,
2025-10-15T05:14:54.801682+00:00,5.865000,-0.042180,
2025-10-15T05:14:54.806682+00:00,5.870000,-0.041420,
2025-10-15T05:14:54.811682+00:00,5.875000,-0.045600,
2025-10-15T05:14:54.816683+00:00,5.880000,-0.055480,
2025-10-15T05:14:54.821682+00:00,5.885000,-0.062320,
2025-10-15T05:14:54.826683+00:00,5.890000,-0.057000,
2025-10-15T05:14:54.831682+00:00,5.895000,-0.035720,
2025-10-15T05:14:54.836683+00:00,5.900000,-0.012540,
2025-10-15T05:14:54.841682+00:00,5.905000,-0.004940,
2025-10-15T05:14:54.846683+00:00,5.910000,-0.019760,
2025-10-15T05:14:54.851682+00:00,5.915000,-0.039520,
2025-10-15T05:14:54.856683+00:00,5.920000,-0.044460,
2025-10-15T05:14:54.861682+00:00,5.925000,-0.034200,
2025-10-15T05:14:54.866683+00:00,5.930000,-0.031540,
2025-10-15T05:14:54.871682+00:00,5.935000,-0.039140,
2025-10-15T05:14:54.876683+00:00,5.940000,-0.038380,
2025-10-15T05:14:54.881682+00:00,5.945000,-0.029260,
2025-10-15T05:14:54.886683+00:00,5.950000,-0.026220,
2025-10-15T05:14:54.891682+00:00,5.955000,-0.033060,
2025-10-15T05:14:54.896683+00:00,5.960000,-0.039900,
2025-10-15T05:14:54.901682+00:00,5.965000,-0.036860,
2025-10-15T05:14:54.906682+00:00,5.970000,-0.032300,
2025-10-15T05:14:54.911682+00:00,5.975000,-0.034580,
2025-10-15T05:14:54.916682+00:00,5.980000,-0.041040,
2025-10-15T05:14:54.921682+00:00,5.985000,-0.042180,
2025-10-15T05:14:54.926682+00:00,5.990000,-0.036860,
2025-10-15T05:14:54.931682+00:00,5.995000,-0.030780,
2025-10-15T05:14:54.936682+00:00,6.000000,-0.031540,
2025-10-15T05:14:54.941683+00:00,6.005000,-0.036860,
2025-10-15T05:14:54.946682+00:00,6.010000,-0.039140,
2025-10-15T05:14:54.951683+00:00,6.015000,-0.033060,
2025-10-15T05:14:54.956682+00:00,6.020000,-0.028120,
2025-10-15T05:14:54.961683+00:00,6.025000,-0.028880,
2025-10-15T05:14:54.966682+00:00,6.030000,-0.031920,
2025-10-15T05:14:54.971683+00:00,6.035000,-0.034580,
2025-10-15T05:14:54.976682+00:00,6.040000,-0.034200,
2025-10-15T05:14:54.981683+00:00,6.045000,-0.034580,
2025-10-15T05:14:54.986682+00:00,6.050000,-0.036860,
2025-10-15T05:14:54.991683+00:00,6.055000,-0.045600,
2025-10-15T05:14:54.996682+00:00,6.060000,-0.051680,
2025-10-15T05:14:55.001683+00:00,6.065000,-0.047880,
2025-10-15T05:14:55.006682+00:00,6.070000,-0.040280,
2025-10-15T05:14:55.011683+00:00,6.075000,-0.042180,
2025-10-15T05:14:55.016682+00:00,6.080000,-0.053580,
2025-10-15T05:14:55.021683+00:00,6.085000,-0.063460,
2025-10-15T05:14:55.026682+00:00,6.090000,-0.063080,
2025-10-15T05:14:55.031682+00:00,6.095000,-0.056240,
2025-10-15T05:14:55.036682+00:00,6.100000,-0.048260,
2025-10-15T05:14:55.041682+00:00,6.105000,-0.039900,
2025-10-15T05:14:55.046682+00:00,6.110000,-0.032680,
2025-10-15T05:14:55.051682+00:00,6.115000,-0.035340,
2025-10-15T05:14:55.056682+00:00,6.120000,-0.044460,
2025-10-15T05:14:55.061682+00:00,6.125000,-0.047120,
2025-10-15T05:14:55.066683+00:00,6.130000,-0.038760,
2025-10-15T05:14:55.071682+00:00,6.135000,-0.026600,
2025-10-15T05:14:55.076683+00:00,6.140000,-0.022040,
2025-10-15T05:14:55.081682+00:00,6.145000,-0.026980,
2025-10-15T05:14:55.086683+00:00,6.150000,-0.040280,
2025-10-15T05:14:55.091682+00:00,6.155000,-0.054720,
2025-10-15T05:14:55.096683+00:00,6.160000,-0.059280,
2025-10-15T05:14:55.101682+00:00,6.165000,-0.055100,
2025-10-15T05:14:55.106683+00:00,6.170000,-0.048260,
2025-10-15T05:14:55.111682+00:00,6.175000,-0.045220,
2025-10-15T05:14:55.116683+00:00,6.180000,-0.045600,
2025-10-15T05:14:55.121682+00:00,6.185000,-0.044080,
2025-10-15T05:14:55.126683+00:00,6.190000,-0.039140,
2025-10-15T05:14:55.131682+00:00,6.195000,-0.031920,
2025-10-15T05:14:55.136683+00:00,6.200000,-0.023180,
2025-10-15T05:14:55.141682+00:00,6.205000,-0.021280,
2025-10-15T05:14:55.146683+00:00,6.210000,-0.025460,
2025-10-15T05:14:55.151682+00:00,6.215000,-0.031160,
2025-10-15T05:14:55.156682+00:00,6.220000,-0.035340,
2025-10-15T05:14:55.161682+00:00,6.225000,-0.036480,
2025-10-15T05:14:55.166682+00:00,6.230000,-0.033820,
2025-10-15T05:14:55.171682+00:00,6.235000,-0.029260,
2025-10-15T05:14:55.176682+00:00,6.240000,-0.027360,
2025-10-15T05:14:55.181682+00:00,6.245000,-0.026600,
2025-10-15T05:14:55.186682+00:00,6.250000,-0.025080,
2025-10-15T05:14:55.191683+00:00,6.255000,-0.020140,
2025-10-15T05:14:55.196682+00:00,6.260000,-0.012160,
2025-10-15T05:14:55.201683+00:00,6.265000,-0.011020,
2025-10-15T05:14:55.206682+00:00,6.270000,-0.023560,
2025-10-15T05:14:55.211683+00:00,6.275000,-0.037620,
2025-10-15T05:14:55.216682+00:00,6.280000,-0.045600,
2025-10-15T05:14:55.221683+00:00,6.285000,-0.046740,
2025-10-15T05:14:55.226682+00:00,6.290000,-0.045600,
2025-10-15T05:14:55.231683+00:00,6.295000,-0.040280,
2025-10-15T05:14:55.236682+00:00,6.300000,-0.032680,
2025-10-15T05:14:55.241683+00:00,6.305000,-0.028880,
2025-10-15T05:14:55.246682+00:00,6.310000,-0.030020,
2025-10-15T05:14:55.251683+00:00,6.315000,-0.038760,
2025-10-15T05:14:55.256682+00:00,6.320000,-0.053200,
2025-10-15T05:14:55.261683+00:00,6.325000,-0.062700,
2025-10-15T05:14:55.266682+00:00,6.330000,-0.064600,
2025-10-15T05:14:55.271683+00:00,6.335000,-0.055100,
2025-10-15T05:14:55.276682+00:00,6.340000,-0.041040,
2025-10-15T05:14:55.281682+00:00,6.345000,-0.035720,
2025-10-15T05:14:55.286682+00:00,6.350000,-0.039140,
2025-10-15T05:14:55.291682+00:00,6.355000,-0.041800,
2025-10-15T05:14:55.296682+00:00,6.360000,-0.038760,
2025-10-15T05:14:55.301682+00:00,6.365000,-0.036860,
2025-10-15T05:14:55.306682+00:00,6.370000,-0.042560,
2025-10-15T05:14:55.311682+00:00,6.375000,-0.044460,
2025-10-15T05:14:55.316683+00:00,6.380000,-0.039900,
2025-10-15T05:14:55.321682+00:00,6.385000,-0.036480,
2025-10-15T05:14:55.326683+00:00,6.390000,-0.042940,
2025-10-15T05:14:55.331682+00:00,6.395000,-0.052060,
2025-10-15T05:14:55.336683+00:00,6.400000,-0.054720,
2025-10-15T05:14:55.341682+00:00,6.405000,-0.052060,
2025-10-15T05:14:55.346683+00:00,6.410000,-0.054340,
2025-10-15T05:14:55.351682+00:00,6.415000,-0.058900,
2025-10-15T05:14:55.356683+00:00,6.420000,-0.058520,
2025-10-15T05:14:55.361682+00:00,6.425000,-0.046360,
2025-10-15T05:14:55.366683+00:00,6.430000,-0.033060,
2025-10-15T05:14:55.371682+00:00,6.435000,-0.024700,
2025-10-15T05:14:55.376683+00:00,6.440000,-0.022040,
2025-10-15T05:14:55.381682+00:00,6.445000,-0.022420,
2025-10-15T05:14:55.386683+00:00,6.450000,-0.027360,
2025-10-15T05:14:55.391682+00:00,6.455000,-0.037240,
2025-10-15T05:14:55.396683+00:00,6.460000,-0.046360,
2025-10-15T05:14:55.401682+00:00,6.465000,-0.047120,
2025-10-15T05:14:55.406682+00:00,6.470000,-0.042560,
2025-10-15T05:14:55.411682+00:00,6.475000,-0.042180,
2025-10-15T05:14:55.416682+00:00,6.480000,-0.043700,
2025-10-15T05:14:55.421682+00:00,6.485000,-0.043700,
2025-10-15T05:14:55.426682+00:00,6.490000,-0.039140,
2025-10-15T05:14:55.431682+00:00,6.495000,-0.036100,
2025-10-15T05:14:55.436682+00:00,6.500000,-0.037620,
2025-10-15T05:14:55.441683+00:00,6.505000,-0.042180,
2025-10-15T05:14:55.446682+00:00,6.510000,-0.043320,
2025-10-15T05:14:55.451683+00:00,6.515000,-0.045980,
2025-10-15T05:14:55.456682+00:00,6.520000,-0.051300,
2025-10-15T05:14:55.461683+00:00,6.525000,-0.050540,
2025-10-15T05:14:55.466682+00:00,6.530000,-0.042940,
2025-10-15T05:14:55.471683+00:00,6.535000,-0.039520,
2025-10-15T05:14:55.476682+00:00,6.540000,-0.041420,
2025-10-15T05:14:55.481683+00:00,6.545000,-0.044460,
2025-10-15T05:14:55.486682+00:00,6.550000,-0.042180,
2025-10-15T05:14:55.491683+00:00,6.555000,-0.035340,
2025-10-15T05:14:55.496682+00:00,6.560000,-0.031160,
2025-10-15T05:14:55.501683+00:00,6.565000,-0.033440,
2025-10-15T05:14:55.506682+00:00,6.570000,-0.042180,
2025-10-15T05:14:55.511683+00:00,6.575000,-0.053960,
2025-10-15T05:14:55.516682+00:00,6.580000,-0.061180,
2025-10-15T05:14:55.521683+00:00,6.585000,-0.059280,
2025-10-15T05:14:55.526682+00:00,6.590000,-0.050920,
2025-10-15T05:14:55.531682+00:00,6.595000,-0.038760,
2025-10-15T05:14:55.536682+00:00,6.600000,-0.029640,
2025-10-15T05:14:55.541682+00:00,6.605000,-0.026220,
2025-10-15T05:14:55.546682+00:00,6.610000,-0.025460,
2025-10-15T05:14:55.551682+00:00,6.615000,-0.027740,
2025-10-15T05:14:55.556682+00:00,6.620000,-0.033060,
2025-10-15T05:14:55.561682+00:00,6.625000,-0.037620,
2025-10-15T05:14:55.566683+00:00,6.630000,-0.035720,
2025-10-15T05:14:55.571682+00:00,6.635000,-0.031160,
2025-10-15T05:14:55.576683+00:00,6.640000,-0.031160,
2025-10-15T05:14:55.581682+00:00,6.645000,-0.035340,
2025-10-15T05:14:55.586683+00:00,6.650000,-0.032300,
2025-10-15T05:14:55.591682+00:00,6.655000,-0.020520,
2025-10-15T05:14:55.596683+00:00,6.660000,-0.015580,
2025-10-15T05:14:55.601682+00:00,6.665000,-0.025080,
2025-10-15T05:14:55.606683+00:00,6.670000,-0.039140,
2025-10-15T05:14:55.611682+00:00,6.675000,-0.041040,
2025-10-15T05:14:55.616683+00:00,6.680000,-0.030400,
2025-10-15T05:14:55.621682+00:00,6.685000,-0.022040,
2025-10-15T05:14:55.626683+00:00,6.690000,-0.030020,
2025-10-15T05:14:55.631682+00:00,6.695000,-0.037620,
2025-10-15T05:14:55.636683+00:00,6.700000,-0.031920,
2025-10-15T05:14:55.641682+00:00,6.705000,-0.014820,
2025-10-15T05:14:55.646683+00:00,6.710000,-0.008360,
2025-10-15T05:14:55.651682+00:00,6.715000,-0.016720,
2025-10-15T05:14:55.656682+00:00,6.720000,-0.027360,
2025-10-15T05:14:55.661682+00:00,6.725000,-0.027740,
2025-10-15T05:14:55.666682+00:00,6.730000,-0.019380,
2025-10-15T05:14:55.671682+00:00,6.735000,-0.018620,
2025-10-15T05:14:55.676682+00:00,6.740000,-0.028120,
2025-10-15T05:14:55.681682+00:00,6.745000,-0.032300,
2025-10-15T05:14:55.686682+00:00,6.750000,-0.028120,
2025-10-15T05:14:55.691683+00:00,6.755000,-0.022040,
2025-10-15T05:14:55.696682+00:00,6.760000,-0.023560,
2025-10-15T05:14:55.701683+00:00,6.765000,-0.028880,
2025-10-15T05:14:55.706682+00:00,6.770000,-0.035340,
2025-10-15T05:14:55.711683+00:00,6.775000,-0.030020,
2025-10-15T05:14:55.716682+00:00,6.780000,-0.019760,
2025-10-15T05:14:55.721683+00:00,6.785000,-0.013300,
2025-10-15T05:14:55.726682+00:00,6.790000,-0.015580,
2025-10-15T05:14:55.731683+00:00,6.795000,-0.017860,
2025-10-15T05:14:55.736682+00:00,6.800000,-0.021660,
2025-10-15T05:14:55.741683+00:00,6.805000,-0.022420,
2025-10-15T05:14:55.746682+00:00,6.810000,-0.022040,
2025-10-15T05:14:55.751683+00:00,6.815000,-0.023180,
2025-10-15T05:14:55.756682+00:00,6.820000,-0.028120,
2025-10-15T05:14:55.761683+00:00,6.825000,-0.031160,
2025-10-15T05:14:55.766682+00:00,6.830000,-0.030780,
2025-10-15T05:14:55.771683+00:00,6.835000,-0.027360,
2025-10-15T05:14:55.776682+00:00,6.840000,-0.024320,
2025-10-15T05:14:55.781682+00:00,6.845000,-0.030020,
2025-10-15T05:14:55.786682+00:00,6.850000,-0.038000,
2025-10-15T05:14:55.791682+00:00,6.855000,-0.041420,
2025-10-15T05:14:55.796682+00:00,6.860000,-0.040660,
2025-10-15T05:14:55.801682+00:00,6.865000,-0.041800,
2025-10-15T05:14:55.806682+00:00,6.870000,-0.049780,
2025-10-15T05:14:55.811682+00:00,6.875000,-0.058140,
2025-10-15T05:14:55.816683+00:00,6.880000,-0.059280,
2025-10-15T05:14:55.821682+00:00,6.885000,-0.047880,
2025-10-15T05:14:55.826683+00:00,6.890000,-0.033440,
2025-10-15T05:14:55.831682+00:00,6.895000,-0.035340,
2025-10-15T05:14:55.836683+00:00,6.900000,-0.053580,
2025-10-15T05:14:55.841682+00:00,6.905000,-0.068780,
2025-10-15T05:14:55.846683+00:00,6.910000,-0.067260,
2025-10-15T05:14:55.851682+00:00,6.915000,-0.053960,
2025-10-15T05:14:55.856683+00:00,6.920000,-0.045220,
2025-10-15T05:14:55.861682+00:00,6.925000,-0.051300,
2025-10-15T05:14:55.866683+00:00,6.930000,-0.063840,
2025-10-15T05:14:55.871682+00:00,6.935000,-0.069160,
2025-10-15T05:14:55.876683+00:00,6.940000,-0.061180,
2025-10-15T05:14:55.881682+00:00,6.945000,-0.051680,
2025-10-15T05:14:55.886683+00:00,6.950000,-0.050540,
2025-10-15T05:14:55.891682+00:00,6.955000,-0.056620,
2025-10-15T05:14:55.896683+00:00,6.960000,-0.060040,
2025-10-15T05:14:55.901682+00:00,6.965000,-0.056240,
2025-10-15T05:14:55.906682+00:00,6.970000,-0.047880,
2025-10-15T05:14:55.911682+00:00,6.975000,-0.037240,
2025-10-15T05:14:55.916682+00:00,6.980000,-0.034580,
2025-10-15T05:14:55.921682+00:00,6.985000,-0.042940,
2025-10-15T05:14:55.926682+00:00,6.990000,-0.056620,
2025-10-15T05:14:55.931682+00:00,6.995000,-0.064600,
2025-10-15T05:14:55.936682+00:00,7.000000,-0.060040,
2025-10-15T05:14:55.941683+00:00,7.005000,-0.054340,
2025-10-15T05:14:55.946682+00:00,7.010000,-0.055480,
2025-10-15T05:14:55.951683+00:00,7.015000,-0.056240,
2025-10-15T05:14:55.956682+00:00,7.020000,-0.047880,
2025-10-15T05:14:55.961683+00:00,7.025000,-0.039140,
2025-10-15T05:14:55.966682+00:00,7.030000,-0.039140,
2025-10-15T05:14:55.971683+00:00,7.035000,-0.050920,
2025-10-15T05:14:55.976682+00:00,7.040000,-0.058900,
2025-10-15T05:14:55.981683+00:00,7.045000,-0.059280,
2025-10-15T05:14:55.986682+00:00,7.050000,-0.056620,
2025-10-15T05:14:55.991683+00:00,7.055000,-0.061940,
2025-10-15T05:14:55.996682+00:00,7.060000,-0.064600,
2025-10-15T05:14:56.001683+00:00,7.065000,-0.056240,
2025-10-15T05:14:56.006682+00:00,7.070000,-0.037240,
2025-10-15T05:14:56.011683+00:00,7.075000,-0.023560,
2025-10-15T05:14:56.016682+00:00,7.080000,-0.027740,
2025-10-15T05:14:56.021683+00:00,7.085000,-0.044840,
2025-10-15T05:14:56.026682+00:00,7.090000,-0.058140,
2025-10-15T05:14:56.031682+00:00,7.095000,-0.057000,
2025-10-15T05:14:56.036682+00:00,7.100000,-0.045980,
2025-10-15T05:14:56.041682+00:00,7.105000,-0.037240,
2025-10-15T05:14:56.046682+00:00,7.110000,-0.039140,
2025-10-15T05:14:56.051682+00:00,7.115000,-0.044460,
2025-10-15T05:14:56.056682+00:00,7.120000,-0.047120,
2025-10-15T05:14:56.061682+00:00,7.125000,-0.047500,
2025-10-15T05:14:56.066683+00:00,7.130000,-0.049780,
2025-10-15T05:14:56.071682+00:00,7.135000,-0.050160,
2025-10-15T05:14:56.076683+00:00,7.140000,-0.038760,
2025-10-15T05:14:56.081682+00:00,7.145000,-0.022040,
2025-10-15T05:14:56.086683+00:00,7.150000,-0.021660,
2025-10-15T05:14:56.091682+00:00,7.155000,-0.040660,
2025-10-15T05:14:56.096683+00:00,7.160000,-0.061180,
2025-10-15T05:14:56.101682+00:00,7.165000,-0.063840,
2025-10-15T05:14:56.106683+00:00,7.170000,-0.049020,
2025-10-15T05:14:56.111682+00:00,7.175000,-0.030400,
2025-10-15T05:14:56.116683+00:00,7.180000,-0.024700,
2025-10-15T05:14:56.121682+00:00,7.185000,-0.033060,
2025-10-15T05:14:56.126683+00:00,7.190000,-0.042180,
2025-10-15T05:14:56.131682+00:00,7.195000,-0.045600,
2025-10-15T05:14:56.136683+00:00,7.200000,-0.046360,
2025-10-15T05:14:56.141682+00:00,7.205000,-0.050540,
2025-10-15T05:14:56.146683+00:00,7.210000,-0.058140,
2025-10-15T05:14:56.151682+00:00,7.215000,-0.058140,
2025-10-15T05:14:56.156682+00:00,7.220000,-0.048640,
2025-10-15T05:14:56.161682+00:00,7.225000,-0.039520,
2025-10-15T05:14:56.166682+00:00,7.230000,-0.037240,
2025-10-15T05:14:56.171682+00:00,7.235000,-0.038760,
2025-10-15T05:14:56.176682+00:00,7.240000,-0.038000,
2025-10-15T05:14:56.181682+00:00,7.245000,-0.036480,
2025-10-15T05:14:56.186682+00:00,7.250000,-0.039140,
2025-10-15T05:14:56.191683+00:00,7.255000,-0.048260,
2025-10-15T05:14:56.196682+00:00,7.260000,-0.053580,
2025-10-15T05:14:56.201683+00:00,7.265000,-0.045600,
2025-10-15T05:14:56.206682+00:00,7.270000,-0.033060,
2025-10-15T05:14:56.211683+00:00,7.275000,-0.028500,
2025-10-15T05:14:56.216682+00:00,7.280000,-0.032680,
2025-10-15T05:14:56.221683+00:00,7.285000,-0.039520,
2025-10-15T05:14:56.226682+00:00,7.290000,-0.042560,
2025-10-15T05:14:56.231683+00:00,7.295000,-0.034580,
2025-10-15T05:14:56.236682+00:00,7.300000,-0.029640,
2025-10-15T05:14:56.241683+00:00,7.305000,-0.032300,
2025-10-15T05:14:56.246682+00:00,7.310000,-0.039520,
2025-10-15T05:14:56.251683+00:00,7.315000,-0.043320,
2025-10-15T05:14:56.256682+00:00,7.320000,-0.040660,
2025-10-15T05:14:56.261683+00:00,7.325000,-0.030780,
2025-10-15T05:14:56.266682+00:00,7.330000,-0.023180,
2025-10-15T05:14:56.271683+00:00,7.335000,-0.024320,
2025-10-15T05:14:56.276682+00:00,7.340000,-0.033820,
2025-10-15T05:14:56.281682+00:00,7.345000,-0.041420,
2025-10-15T05:14:56.286682+00:00,7.350000,-0.045220,
2025-10-15T05:14:56.291682+00:00,7.355000,-0.042560,
2025-10-15T05:14:56.296682+00:00,7.360000,-0.035720,
2025-10-15T05:14:56.301682+00:00,7.365000,-0.034960,
2025-10-15T05:14:56.306682+00:00,7.370000,-0.041420,
2025-10-15T05:14:56.311682+00:00,7.375000,-0.050160,
2025-10-15T05:14:56.316683+00:00,7.380000,-0.053200,
2025-10-15T05:14:56.321682+00:00,7.385000,-0.049400,
2025-10-15T05:14:56.326683+00:00,7.390000,-0.044840,
2025-10-15T05:14:56.331682+00:00,7.395000,-0.047880,
2025-10-15T05:14:56.336683+00:00,7.400000,-0.056240,
2025-10-15T05:14:56.341682+00:00,7.405000,-0.072960,
2025-10-15T05:14:56.346683+00:00,7.410000,-0.085120,
2025-10-15T05:14:56.351682+00:00,7.415000,-0.081700,
2025-10-15T05:14:56.356683+00:00,7.420000,-0.066500,
2025-10-15T05:14:56.361682+00:00,7.425000,-0.051680,
2025-10-15T05:14:56.366683+00:00,7.430000,-0.044840,
2025-10-15T05:14:56.371682+00:00,7.435000,-0.045220,
2025-10-15T05:14:56.376683+00:00,7.440000,-0.045600,
2025-10-15T05:14:56.381682+00:00,7.445000,-0.047120,
2025-10-15T05:14:56.386683+00:00,7.450000,-0.057000,
2025-10-15T05:14:56.391682+00:00,7.455000,-0.063460,
2025-10-15T05:14:56.396683+00:00,7.460000,-0.054720,
2025-10-15T05:14:56.401682+00:00,7.465000,-0.034580,
2025-10-15T05:14:56.406682+00:00,7.470000,-0.019000,
2025-10-15T05:14:56.411682+00:00,7.475000,-0.017100,
2025-10-15T05:14:56.416682+00:00,7.480000,-0.030020,
2025-10-15T05:14:56.421682+00:00,7.485000,-0.045980,
2025-10-15T05:14:56.426682+00:00,7.490000,-0.051680,
2025-10-15T05:14:56.431682+00:00,7.495000,-0.044460,
2025-10-15T05:14:56.436682+00:00,7.500000,-0.028500,
2025-10-15T05:14:56.441683+00:00,7.505000,-0.017860,
2025-10-15T05:14:56.446682+00:00,7.510000,-0.018620,
2025-10-15T05:14:56.451683+00:00,7.515000,-0.025840,
2025-10-15T05:14:56.456682+00:00,7.520000,-0.026600,
2025-10-15T05:14:56.461683+00:00,7.525000,-0.022040,
2025-10-15T05:14:56.466682+00:00,7.530000,-0.014440,
2025-10-15T05:14:56.471683+00:00,7.535000,-0.013300,
2025-10-15T05:14:56.476682+00:00,7.540000,-0.018620,
2025-10-15T05:14:56.481683+00:00,7.545000,-0.021280,
2025-10-15T05:14:56.486682+00:00,7.550000,-0.022800,
2025-10-15T05:14:56.491683+00:00,7.555000,-0.026600,
2025-10-15T05:14:56.496682+00:00,7.560000,-0.031160,
2025-10-15T05:14:56.501683+00:00,7.565000,-0.031920,
2025-10-15T05:14:56.506682+00:00,7.570000,-0.026220,
2025-10-15T05:14:56.511683+00:00,7.575000,-0.024700,
2025-10-15T05:14:56.516682+00:00,7.580000,-0.032680,
2025-10-15T05:14:56.521683+00:00,7.585000,-0.050160,
2025-10-15T05:14:56.526682+00:00,7.590000,-0.058900,
2025-10-15T05:14:56.531682+00:00,7.595000,-0.053960,
2025-10-15T05:14:56.536682+00:00,7.600000,-0.047880,
2025-10-15T05:14:56.541682+00:00,7.605000,-0.056240,
2025-10-15T05:14:56.546682+00:00,7.610000,-0.066120,
2025-10-15T05:14:56.551682+00:00,7.615000,-0.062320,
2025-10-15T05:14:56.556682+00:00,7.620000,-0.040280,
2025-10-15T05:14:56.561682+00:00,7.625000,-0.027360,
2025-10-15T05:14:56.566683+00:00,7.630000,-0.032680,
2025-10-15T05:14:56.571682+00:00,7.635000,-0.046360,
2025-10-15T05:14:56.576683+00:00,7.640000,-0.054720,
2025-10-15T05:14:56.581682+00:00,7.645000,-0.057380,
2025-10-15T05:14:56.586683+00:00,7.650000,-0.055100,
2025-10-15T05:14:56.591682+00:00,7.655000,-0.045220,
2025-10-15T05:14:56.596683+00:00,7.660000,-0.035340,
2025-10-15T05:14:56.601682+00:00,7.665000,-0.031920,
2025-10-15T05:14:56.606683+00:00,7.670000,-0.031540,
2025-10-15T05:14:56.611682+00:00,7.675000,-0.030780,
2025-10-15T05:14:56.616683+00:00,7.680000,-0.024320,
2025-10-15T05:14:56.621682+00:00,7.685000,-0.019380,
2025-10-15T05:14:56.626683+00:00,7.690000,-0.018620,
2025-10-15T05:14:56.631682+00:00,7.695000,-0.020140,
2025-10-15T05:14:56.636683+00:00,7.700000,-0.025080,
2025-10-15T05:14:56.641682+00:00,7.705000,-0.034200,
2025-10-15T05:14:56.646683+00:00,7.710000,-0.041800,
2025-10-15T05:14:56.651682+00:00,7.715000,-0.039900,
2025-10-15T05:14:56.656682+00:00,7.720000,-0.036480,
2025-10-15T05:14:56.661682+00:00,7.725000,-0.040280,
2025-10-15T05:14:56.666682+00:00,7.730000,-0.047880,
2025-10-15T05:14:56.671682+00:00,7.735000,-0.050540,
2025-10-15T05:14:56.676682+00:00,7.740000,-0.047500,
2025-10-15T05:14:56.681682+00:00,7.745000,-0.041800,
2025-10-15T05:14:56.686682+00:00,7.750000,-0.041420,
2025-10-15T05:14:56.691683+00:00,7.755000,-0.045220,
2025-10-15T05:14:56.696682+00:00,7.760000,-0.047120,
2025-10-15T05:14:56.701683+00:00,7.765000,-0.040660,
2025-10-15T05:14:56.706682+00:00,7.770000,-0.035340,
2025-10-15T05:14:56.711683+00:00,7.775000,-0.038760,
2025-10-15T05:14:56.716682+00:00,7.780000,-0.045600,
2025-10-15T05:14:56.721683+00:00,7.785000,-0.045980,
2025-10-15T05:14:56.726682+00:00,7.790000,-0.040660,
2025-10-15T05:14:56.731683+00:00,7.795000,-0.033440,
2025-10-15T05:14:56.736682+00:00,7.800000,-0.031920,
2025-10-15T05:14:56.741683+00:00,7.805000,-0.039520,
2025-10-15T05:14:56.746682+00:00,7.810000,-0.050920,
2025-10-15T05:14:56.751683+00:00,7.815000,-0.058140,
2025-10-15T05:14:56.756682+00:00,7.820000,-0.058140,
2025-10-15T05:14:56.761683+00:00,7.825000,-0.051680,
2025-10-15T05:14:56.766682+00:00,7.830000,-0.049780,
2025-10-15T05:14:56.771683+00:00,7.835000,-0.053200,
2025-10-15T05:14:56.776682+00:00,7.840000,-0.056240,
2025-10-15T05:14:56.781682+00:00,7.845000,-0.049400,
2025-10-15T05:14:56.786682+00:00,7.850000,-0.042180,
2025-10-15T05:14:56.791682+00:00,7.855000,-0.042180,
2025-10-15T05:14:56.796682+00:00,7.860000,-0.046360,
2025-10-15T05:14:56.801682+00:00,7.865000,-0.041800,
2025-10-15T05:14:56.806682+00:00,7.870000,-0.030400,
2025-10-15T05:14:56.811682+00:00,7.875000,-0.026220,
2025-10-15T05:14:56.816683+00:00,7.880000,-0.033060,
2025-10-15T05:14:56.821682+00:00,7.885000,-0.039520,
2025-10-15T05:14:56.826683+00:00,7.890000,-0.035720,
2025-10-15T05:14:56.831682+00:00,7.895000,-0.023180,
2025-10-15T05:14:56.836683+00:00,7.900000,-0.019760,
2025-10-15T05:14:56.841682+00:00,7.905000,-0.030400,
2025-10-15T05:14:56.846683+00:00,7.910000,-0.041040,
2025-10-15T05:14:56.851682+00:00,7.915000,-0.039520,
2025-10-15T05:14:56.856683+00:00,7.920000,-0.033060,
2025-10-15T05:14:56.861682+00:00,7.925000,-0.031540,
2025-10-15T05:14:56.866683+00:00,7.930000,-0.039520,
2025-10-15T05:14:56.871682+00:00,7.935000,-0.056240,
2025-10-15T05:14:56.876683+00:00,7.940000,-0.071060,
2025-10-15T05:14:56.881682+00:00,7.945000,-0.073720,
2025-10-15T05:14:56.886683+00:00,7.950000,-0.067640,
2025-10-15T05:14:56.891682+00:00,7.955000,-0.056620,
2025-10-15T05:14:56.896683+00:00,7.960000,-0.048640,
2025-10-15T05:14:56.901682+00:00,7.965000,-0.045220,
2025-10-15T05:14:56.906682+00:00,7.970000,-0.041420,
2025-10-15T05:14:56.911682+00:00,7.975000,-0.041800,
2025-10-15T05:14:56.916682+00:00,7.980000,-0.048260,
2025-10-15T05:14:56.921682+00:00,7.985000,-0.054720,
2025-10-15T05:14:56.926682+00:00,7.990000,-0.053960,
2025-10-15T05:14:56.931682+00:00,7.995000,-0.051300,
2025-10-15T05:14:56.936682+00:00,8.000000,-0.048640,
2025-10-15T05:14:56.941683+00:00,8.005000,-0.050920,
2025-10-15T05:14:56.946682+00:00,8.010000,-0.056240,
2025-10-15T05:14:56.951683+00:00,8.015000,-0.063840,
2025-10-15T05:14:56.956682+00:00,8.020000,-0.072200,
2025-10-15T05:14:56.961683+00:00,8.025000,-0.074860,
2025-10-15T05:14:56.966682+00:00,8.030000,-0.070300,
2025-10-15T05:14:56.971683+00:00,8.035000,-0.063460,
2025-10-15T05:14:56.976682+00:00,8.040000,-0.056240,
2025-10-15T05:14:56.981683+00:00,8.045000,-0.049780,
2025-10-15T05:14:56.986682+00:00,8.050000,-0.047880,
2025-10-15T05:14:56.991683+00:00,8.055000,-0.053960,
2025-10-15T05:14:56.996682+00:00,8.060000,-0.060040,
2025-10-15T05:14:57.001683+00:00,8.065000,-0.058900,
2025-10-15T05:14:57.006682+00:00,8.070000,-0.048260,
2025-10-15T05:14:57.011683+00:00,8.075000,-0.036100,
2025-10-15T05:14:57.016682+00:00,8.080000,-0.029640,
2025-10-15T05:14:57.021683+00:00,8.085000,-0.028500,
2025-10-15T05:14:57.026682+00:00,8.090000,-0.031920,
2025-10-15T05:14:57.031682+00:00,8.095000,-0.038380,
2025-10-15T05:14:57.036682+00:00,8.100000,-0.044840,
2025-10-15T05:14:57.041682+00:00,8.105000,-0.043700,
2025-10-15T05:14:57.046682+00:00,8.110000,-0.036100,
2025-10-15T05:14:57.051682+00:00,8.115000,-0.028880,
2025-10-15T05:14:57.056682+00:00,8.120000,-0.027360,
2025-10-15T05:14:57.061682+00:00,8.125000,-0.031160,
2025-10-15T05:14:57.066683+00:00,8.130000,-0.029260,
2025-10-15T05:14:57.071682+00:00,8.135000,-0.027360,
2025-10-15T05:14:57.076683+00:00,8.140000,-0.034580,
2025-10-15T05:14:57.081682+00:00,8.145000,-0.045600,
2025-10-15T05:14:57.086683+00:00,8.150000,-0.048260,
2025-10-15T05:14:57.091682+00:00,8.155000,-0.041420,
2025-10-15T05:14:57.096683+00:00,8.160000,-0.034960,
2025-10-15T05:14:57.101682+00:00,8.165000,-0.034200,
2025-10-15T05:14:57.106683+00:00,8.170000,-0.030780,
2025-10-15T05:14:57.111682+00:00,8.175000,-0.026220,
2025-10-15T05:14:57.116683+00:00,8.180000,-0.023940,
2025-10-15T05:14:57.121682+00:00,8.185000,-0.031160,
2025-10-15T05:14:57.126683+00:00,8.190000,-0.036100,
2025-10-15T05:14:57.131682+00:00,8.195000,-0.033820,
2025-10-15T05:14:57.136683+00:00,8.200000,-0.028120,
2025-10-15T05:14:57.141682+00:00,8.205000,-0.026600,
2025-10-15T05:14:57.146683+00:00,8.210000,-0.027740,
2025-10-15T05:14:57.151682+00:00,8.215000,-0.031160,
2025-10-15T05:14:57.156682+00:00,8.220000,-0.035720,
2025-10-15T05:14:57.161682+00:00,8.225000,-0.033820,
2025-10-15T05:14:57.166682+00:00,8.230000,-0.024700,
2025-10-15T05:14:57.171682+00:00,8.235000,-0.026980,
2025-10-15T05:14:57.176682+00:00,8.240000,-0.047500,
2025-10-15T05:14:57.181682+00:00,8.245000,-0.069540,
2025-10-15T05:14:57.186682+00:00,8.250000,-0.068400,
2025-10-15T05:14:57.191683+00:00,8.255000,-0.047500,
2025-10-15T05:14:57.196682+00:00,8.260000,-0.026220,
2025-10-15T05:14:57.201683+00:00,8.265000,-0.021660,
2025-10-15T05:14:57.206682+00:00,8.270000,-0.028880,
2025-10-15T05:14:57.211683+00:00,8.275000,-0.035720,
2025-10-15T05:14:57.216682+00:00,8.280000,-0.039520,
2025-10-15T05:14:57.221683+00:00,8.285000,-0.044840,
2025-10-15T05:14:57.226682+00:00,8.290000,-0.048260,
2025-10-15T05:14:57.231683+00:00,8.295000,-0.047120,
2025-10-15T05:14:57.236682+00:00,8.300000,-0.039900,
2025-10-15T05:14:57.241683+00:00,8.305000,-0.034580,
2025-10-15T05:14:57.246682+00:00,8.310000,-0.034200,
2025-10-15T05:14:57.251683+00:00,8.315000,-0.037620,
2025-10-15T05:14:57.256682+00:00,8.320000,-0.039520,
2025-10-15T05:14:57.261683+00:00,8.325000,-0.040660,
2025-10-15T05:14:57.266682+00:00,8.330000,-0.036860,
2025-10-15T05:14:57.271683+00:00,8.335000,-0.031920,
2025-10-15T05:14:57.276682+00:00,8.340000,-0.026220,
2025-10-15T05:14:57.281682+00:00,8.345000,-0.028880,
2025-10-15T05:14:57.286682+00:00,8.350000,-0.036480,
2025-10-15T05:14:57.291682+00:00,8.355000,-0.041800,
2025-10-15T05:14:57.296682+00:00,8.360000,-0.039140,
2025-10-15T05:14:57.301682+00:00,8.365000,-0.031920,
2025-10-15T05:14:57.306682+00:00,8.370000,-0.030020,
2025-10-15T05:14:57.311682+00:00,8.375000,-0.030020,
2025-10-15T05:14:57.316683+00:00,8.380000,-0.030780,
2025-10-15T05:14:57.321682+00:00,8.385000,-0.039900,
2025-10-15T05:14:57.326683+00:00,8.390000,-0.049020,
2025-10-15T05:14:57.331682+00:00,8.395000,-0.044840,
2025-10-15T05:14:57.336683+00:00,8.400000,-0.026600,
2025-10-15T05:14:57.341682+00:00,8.405000,-0.014060,
2025-10-15T05:14:57.346683+00:00,8.410000,-0.017860,
2025-10-15T05:14:57.351682+00:00,8.415000,-0.034580,
2025-10-15T05:14:57.356683+00:00,8.420000,-0.044840,
2025-10-15T05:14:57.361682+00:00,8.425000,-0.041040,
2025-10-15T05:14:57.366683+00:00,8.430000,-0.029260,
2025-10-15T05:14:57.371682+00:00,8.435000,-0.022420,
2025-10-15T05:14:57.376683+00:00,8.440000,-0.022420,
2025-10-15T05:14:57.381682+00:00,8.445000,-0.028880,
2025-10-15T05:14:57.386683+00:00,8.450000,-0.032680,
2025-10-15T05:14:57.391682+00:00,8.455000,-0.031920,
2025-10-15T05:14:57.396683+00:00,8.460000,-0.024700,
2025-10-15T05:14:57.401682+00:00,8.465000,-0.020140,
2025-10-15T05:14:57.406682+00:00,8.470000,-0.023180,
2025-10-15T05:14:57.411682+00:00,8.475000,-0.031540,
2025-10-15T05:14:57.416682+00:00,8.480000,-0.034580,
2025-10-15T05:14:57.421682+00:00,8.485000,-0.034960,
2025-10-15T05:14:57.426682+00:00,8.490000,-0.031160,
2025-10-15T05:14:57.431682+00:00,8.495000,-0.031160,
2025-10-15T05:14:57.436682+00:00,8.500000,-0.034580,
2025-10-15T05:14:57.441683+00:00,8.505000,-0.038000,
2025-10-15T05:14:57.446682+00:00,8.510000,-0.031540,
2025-10-15T05:14:57.451683+00:00,8.515000,-0.018620,
2025-10-15T05:14:57.456682+00:00,8.520000,-0.012540,
2025-10-15T05:14:57.461683+00:00,8.525000,-0.019380,
2025-10-15T05:14:57.466682+00:00,8.530000,-0.026220,
2025-10-15T05:14:57.471683+00:00,8.535000,-0.026220,
2025-10-15T05:14:57.476682+00:00,8.540000,-0.023940,
2025-10-15T05:14:57.481683+00:00,8.545000,-0.025840,
2025-10-15T05:14:57.486682+00:00,8.550000,-0.036480,
2025-10-15T05:14:57.491683+00:00,8.555000,-0.047120,
2025-10-15T05:14:57.496682+00:00,8.560000,-0.048640,
2025-10-15T05:14:57.501683+00:00,8.565000,-0.042180,
2025-10-15T05:14:57.506682+00:00,8.570000,-0.036100,
2025-10-15T05:14:57.511683+00:00,8.575000,-0.042180,
2025-10-15T05:14:57.516682+00:00,8.580000,-0.056240,
2025-10-15T05:14:57.521683+00:00,8.585000,-0.064600,
2025-10-15T05:14:57.526682+00:00,8.590000,-0.060420,
2025-10-15T05:14:57.531682+00:00,8.595000,-0.051680,
2025-10-15T05:14:57.536682+00:00,8.600000,-0.048640,
2025-10-15T05:14:57.541682+00:00,8.605000,-0.049780,
2025-10-15T05:14:57.546682+00:00,8.610000,-0.052060,
2025-10-15T05:14:57.551682+00:00,8.615000,-0.053580,
2025-10-15T05:14:57.556682+00:00,8.620000,-0.055480,
2025-10-15T05:14:57.561682+00:00,8.625000,-0.050160,
2025-10-15T05:14:57.566683+00:00,8.630000,-0.036100,
2025-10-15T05:14:57.571682+00:00,8.635000,-0.023560,
2025-10-15T05:14:57.576683+00:00,8.640000,-0.021660,
2025-10-15T05:14:57.581682+00:00,8.645000,-0.026220,
2025-10-15T05:14:57.586683+00:00,8.650000,-0.033440,
2025-10-15T05:14:57.591682+00:00,8.655000,-0.037240,
2025-10-15T05:14:57.596683+00:00,8.660000,-0.037240,
2025-10-15T05:14:57.601682+00:00,8.665000,-0.033060,
2025-10-15T05:14:57.606683+00:00,8.670000,-0.031540,
2025-10-15T05:14:57.611682+00:00,8.675000,-0.031920,
2025-10-15T05:14:57.616683+00:00,8.680000,-0.036860,
2025-10-15T05:14:57.621682+00:00,8.685000,-0.038760,
2025-10-15T05:14:57.626683+00:00,8.690000,-0.032300,
2025-10-15T05:14:57.631682+00:00,8.695000,-0.020900,
2025-10-15T05:14:57.636683+00:00,8.700000,-0.020520,
2025-10-15T05:14:57.641682+00:00,8.705000,-0.029260,
2025-10-15T05:14:57.646683+00:00,8.710000,-0.033060,
2025-10-15T05:14:57.651682+00:00,8.715000,-0.028880,
2025-10-15T05:14:57.656682+00:00,8.720000,-0.029640,
2025-10-15T05:14:57.661682+00:00,8.725000,-0.035720,
2025-10-15T05:14:57.666682+00:00,8.730000,-0.041800,
2025-10-15T05:14:57.671682+00:00,8.735000,-0.039140,
2025-10-15T05:14:57.676682+00:00,8.740000,-0.035720,
2025-10-15T05:14:57.681682+00:00,8.745000,-0.038000,
2025-10-15T05:14:57.686682+00:00,8.750000,-0.041420,
2025-10-15T05:14:57.691683+00:00,8.755000,-0.036860,
2025-10-15T05:14:57.696682+00:00,8.760000,-0.030400,
2025-10-15T05:14:57.701683+00:00,8.765000,-0.024700,
2025-10-15T05:14:57.706682+00:00,8.770000,-0.023180,
2025-10-15T05:14:57.711683+00:00,8.775000,-0.020520,
2025-10-15T05:14:57.716682+00:00,8.780000,-0.023940,
2025-10-15T05:14:57.721683+00:00,8.785000,-0.031920,
2025-10-15T05:14:57.726682+00:00,8.790000,-0.038760,
2025-10-15T05:14:57.731683+00:00,8.795000,-0.039900,
2025-10-15T05:14:57.736682+00:00,8.800000,-0.034960,
2025-10-15T05:14:57.741683+00:00,8.805000,-0.031160,
2025-10-15T05:14:57.746682+00:00,8.810000,-0.034580,
2025-10-15T05:14:57.751683+00:00,8.815000,-0.038380,
2025-10-15T05:14:57.756682+00:00,8.820000,-0.032680,
2025-10-15T05:14:57.761683+00:00,8.825000,-0.019760,
2025-10-15T05:14:57.766682+00:00,8.830000,-0.014060,
2025-10-15T05:14:57.771683+00:00,8.835000,-0.022040,
2025-10-15T05:14:57.776682+00:00,8.840000,-0.032300,
2025-10-15T05:14:57.781682+00:00,8.845000,-0.030020,
2025-10-15T05:14:57.786682+00:00,8.850000,-0.017480,
2025-10-15T05:14:57.791682+00:00,8.855000,-0.014060,
2025-10-15T05:14:57.796682+00:00,8.860000,-0.026980,
2025-10-15T05:14:57.801682+00:00,8.865000,-0.042560,
2025-10-15T05:14:57.806682+00:00,8.870000,-0.047880,
2025-10-15T05:14:57.811682+00:00,8.875000,-0.038760,
2025-10-15T05:14:57.816683+00:00,8.880000,-0.028120,
2025-10-15T05:14:57.821682+00:00,8.885000,-0.024320,
2025-10-15T05:14:57.826683+00:00,8.890000,-0.028880,
2025-10-15T05:14:57.831682+00:00,8.895000,-0.030400,
2025-10-15T05:14:57.836683+00:00,8.900000,-0.026600,
2025-10-15T05:14:57.841682+00:00,8.905000,-0.021280,
2025-10-15T05:14:57.846683+00:00,8.910000,-0.018240,
2025-10-15T05:14:57.851682+00:00,8.915000,-0.014820,
2025-10-15T05:14:57.856683+00:00,8.920000,-0.012540,
2025-10-15T05:14:57.861682+00:00,8.925000,-0.014820,
2025-10-15T05:14:57.866683+00:00,8.930000,-0.023560,
2025-10-15T05:14:57.871682+00:00,8.935000,-0.032300,
2025-10-15T05:14:57.876683+00:00,8.940000,-0.033820,
2025-10-15T05:14:57.881682+00:00,8.945000,-0.028500,
2025-10-15T05:14:57.886683+00:00,8.950000,-0.027360,
2025-10-15T05:14:57.891682+00:00,8.955000,-0.029260,
2025-10-15T05:14:57.896683+00:00,8.960000,-0.025840,
2025-10-15T05:14:57.901682+00:00,8.965000,-0.019380,
2025-10-15T05:14:57.906682+00:00,8.970000,-0.021660,
2025-10-15T05:14:57.911682+00:00,8.975000,-0.040280,
2025-10-15T05:14:57.916682+00:00,8.980000,-0.058900,
2025-10-15T05:14:57.921682+00:00,8.985000,-0.063460,
2025-10-15T05:14:57.926682+00:00,8.990000,-0.051680,
2025-10-15T05:14:57.931682+00:00,8.995000,-0.033060,
2025-10-15T05:14:57.936682+00:00,9.000000,-0.022420,
2025-10-15T05:14:57.941683+00:00,9.005000,-0.030020,
2025-10-15T05:14:57.946682+00:00,9.010000,-0.045980,
2025-10-15T05:14:57.951683+00:00,9.015000,-0.058140,
2025-10-15T05:14:57.956682+00:00,9.020000,-0.059280,
2025-10-15T05:14:57.961683+00:00,9.025000,-0.050920,
2025-10-15T05:14:57.966682+00:00,9.030000,-0.042560,
2025-10-15T05:14:57.971683+00:00,9.035000,-0.038000,
2025-10-15T05:14:57.976682+00:00,9.040000,-0.037620,
2025-10-15T05:14:57.981683+00:00,9.045000,-0.037240,
2025-10-15T05:14:57.986682+00:00,9.050000,-0.038380,
2025-10-15T05:14:57.991683+00:00,9.055000,-0.037620,
2025-10-15T05:14:57.996682+00:00,9.060000,-0.044080,
2025-10-15T05:14:58.001683+00:00,9.065000,-0.054340,
2025-10-15T05:14:58.006682+00:00,9.070000,-0.051680,
2025-10-15T05:14:58.011683+00:00,9.075000,-0.032680,
2025-10-15T05:14:58.016682+00:00,9.080000,-0.014060,
2025-10-15T05:14:58.021683+00:00,9.085000,-0.010640,
2025-10-15T05:14:58.026682+00:00,9.090000,-0.025460,
2025-10-15T05:14:58.031682+00:00,9.095000,-0.042560,
2025-10-15T05:14:58.036682+00:00,9.100000,-0.047500,
2025-10-15T05:14:58.041682+00:00,9.105000,-0.043700,
2025-10-15T05:14:58.046682+00:00,9.110000,-0.042940,
2025-10-15T05:14:58.051682+00:00,9.115000,-0.049780,
2025-10-15T05:14:58.056682+00:00,9.120000,-0.061940,
2025-10-15T05:14:58.061682+00:00,9.125000,-0.069540,
2025-10-15T05:14:58.066683+00:00,9.130000,-0.065360,
2025-10-15T05:14:58.071682+00:00,9.135000,-0.054340,
2025-10-15T05:14:58.076683+00:00,9.140000,-0.049780,
2025-10-15T05:14:58.081682+00:00,9.145000,-0.046360,
2025-10-15T05:14:58.086683+00:00,9.150000,-0.035720,
2025-10-15T05:14:58.091682+00:00,9.155000,-0.024700,
2025-10-15T05:14:58.096683+00:00,9.160000,-0.025840,
2025-10-15T05:14:58.101682+00:00,9.165000,-0.042180,
2025-10-15T05:14:58.106683+00:00,9.170000,-0.062700,
2025-10-15T05:14:58.111682+00:00,9.175000,-0.061180,
2025-10-15T05:14:58.116683+00:00,9.180000,-0.042940,
2025-10-15T05:14:58.121682+00:00,9.185000,-0.028500,
2025-10-15T05:14:58.126683+00:00,9.190000,-0.031540,
2025-10-15T05:14:58.131682+00:00,9.195000,-0.038380,
2025-10-15T05:14:58.136683+00:00,9.200000,-0.037620,
2025-10-15T05:14:58.141682+00:00,9.205000,-0.028120,
2025-10-15T05:14:58.146683+00:00,9.210000,-0.019760,
2025-10-15T05:14:58.151682+00:00,9.215000,-0.022420,
2025-10-15T05:14:58.156682+00:00,9.220000,-0.036480,
2025-10-15T05:14:58.161682+00:00,9.225000,-0.051680,
2025-10-15T05:14:58.166682+00:00,9.230000,-0.054720,
2025-10-15T05:14:58.171682+00:00,9.235000,-0.045220,
2025-10-15T05:14:58.176682+00:00,9.240000,-0.036860,
2025-10-15T05:14:58.181682+00:00,9.245000,-0.038380,
2025-10-15T05:14:58.186682+00:00,9.250000,-0.049400,
2025-10-15T05:14:58.191683+00:00,9.255000,-0.059660,
2025-10-15T05:14:58.196682+00:00,9.260000,-0.056240,
2025-10-15T05:14:58.201683+00:00,9.265000,-0.040660,
2025-10-15T05:14:58.206682+00:00,9.270000,-0.021280,
2025-10-15T05:14:58.211683+00:00,9.275000,-0.015580,
2025-10-15T05:14:58.216682+00:00,9.280000,-0.025080,
2025-10-15T05:14:58.221683+00:00,9.285000,-0.039900,
2025-10-15T05:14:58.226682+00:00,9.290000,-0.052820,
2025-10-15T05:14:58.231683+00:00,9.295000,-0.058900,
2025-10-15T05:14:58.236682+00:00,9.300000,-0.062700,
2025-10-15T05:14:58.241683+00:00,9.305000,-0.058520,
2025-10-15T05:14:58.246682+00:00,9.310000,-0.047880,
2025-10-15T05:14:58.251683+00:00,9.315000,-0.039520,
2025-10-15T05:14:58.256682+00:00,9.320000,-0.037240,
2025-10-15T05:14:58.261683+00:00,9.325000,-0.035340,
2025-10-15T05:14:58.266682+00:00,9.330000,-0.028120,
2025-10-15T05:14:58.271683+00:00,9.335000,-0.023940,
2025-10-15T05:14:58.276682+00:00,9.340000,-0.028500,
2025-10-15T05:14:58.281682+00:00,9.345000,-0.030780,
2025-10-15T05:14:58.286682+00:00,9.350000,-0.029260,
2025-10-15T05:14:58.291682+00:00,9.355000,-0.027740,
2025-10-15T05:14:58.296682+00:00,9.360000,-0.031160,
2025-10-15T05:14:58.301682+00:00,9.365000,-0.032680,
2025-10-15T05:14:58.306682+00:00,9.370000,-0.030780,
2025-10-15T05:14:58.311682+00:00,9.375000,-0.030400,
2025-10-15T05:14:58.316683+00:00,9.380000,-0.036100,
2025-10-15T05:14:58.321682+00:00,9.385000,-0.045980,
2025-10-15T05:14:58.326683+00:00,9.390000,-0.049400,
2025-10-15T05:14:58.331682+00:00,9.395000,-0.042180,
2025-10-15T05:14:58.336683+00:00,9.400000,-0.031160,
2025-10-15T05:14:58.341682+00:00,9.405000,-0.030020,
2025-10-15T05:14:58.346683+00:00,9.410000,-0.035720,
2025-10-15T05:14:58.351682+00:00,9.415000,-0.036860,
2025-10-15T05:14:58.356683+00:00,9.420000,-0.028120,
2025-10-15T05:14:58.361682+00:00,9.425000,-0.024320,
2025-10-15T05:14:58.366683+00:00,9.430000,-0.031920,
2025-10-15T05:14:58.371682+00:00,9.435000,-0.041040,
2025-10-15T05:14:58.376683+00:00,9.440000,-0.047120,
2025-10-15T05:14:58.381682+00:00,9.445000,-0.047500,
2025-10-15T05:14:58.386683+00:00,9.450000,-0.042940,
2025-10-15T05:14:58.391682+00:00,9.455000,-0.031920,
2025-10-15T05:14:58.396683+00:00,9.460000,-0.022800,
2025-10-15T05:14:58.401682+00:00,9.465000,-0.025460,
2025-10-15T05:14:58.406682+00:00,9.470000,-0.041420,
2025-10-15T05:14:58.411682+00:00,9.475000,-0.058140,
2025-10-15T05:14:58.416682+00:00,9.480000,-0.064600,
2025-10-15T05:14:58.421682+00:00,9.485000,-0.055480,
2025-10-15T05:14:58.426682+00:00,9.490000,-0.038000,
2025-10-15T05:14:58.431682+00:00,9.495000,-0.025840,
2025-10-15T05:14:58.436682+00:00,9.500000,-0.027740,
2025-10-15T05:14:58.441683+00:00,9.505000,-0.043700,
2025-10-15T05:14:58.446682+00:00,9.510000,-0.053580,
2025-10-15T05:14:58.451683+00:00,9.515000,-0.047880,
2025-10-15T05:14:58.456682+00:00,9.520000,-0.043320,
2025-10-15T05:14:58.461683+00:00,9.525000,-0.048260,
2025-10-15T05:14:58.466682+00:00,9.530000,-0.060040,
2025-10-15T05:14:58.471683+00:00,9.535000,-0.063840,
2025-10-15T05:14:58.476682+00:00,9.540000,-0.061180,
2025-10-15T05:14:58.481683+00:00,9.545000,-0.056620,
2025-10-15T05:14:58.486682+00:00,9.550000,-0.053200,
2025-10-15T05:14:58.491683+00:00,9.555000,-0.054720,
2025-10-15T05:14:58.496682+00:00,9.560000,-0.061940,
2025-10-15T05:14:58.501683+00:00,9.565000,-0.072200,
2025-10-15T05:14:58.506682+00:00,9.570000,-0.075620,
2025-10-15T05:14:58.511683+00:00,9.575000,-0.063840,
2025-10-15T05:14:58.516682+00:00,9.580000,-0.042940,
2025-10-15T05:14:58.521683+00:00,9.585000,-0.034200,
2025-10-15T05:14:58.526682+00:00,9.590000,-0.039900,
2025-10-15T05:14:58.531682+00:00,9.595000,-0.050540,
2025-10-15T05:14:58.536682+00:00,9.600000,-0.053200,
2025-10-15T05:14:58.541682+00:00,9.605000,-0.052060,
2025-10-15T05:14:58.546682+00:00,9.610000,-0.050540,
2025-10-15T05:14:58.551682+00:00,9.615000,-0.049020,
2025-10-15T05:14:58.556682+00:00,9.620000,-0.050540,
2025-10-15T05:14:58.561682+00:00,9.625000,-0.055860,
2025-10-15T05:14:58.566683+00:00,9.630000,-0.054720,
2025-10-15T05:14:58.571682+00:00,9.635000,-0.052820,
2025-10-15T05:14:58.576683+00:00,9.640000,-0.048640,
2025-10-15T05:14:58.581682+00:00,9.645000,-0.047120,
2025-10-15T05:14:58.586683+00:00,9.650000,-0.044840,
2025-10-15T05:14:58.591682+00:00,9.655000,-0.040280,
2025-10-15T05:14:58.596683+00:00,9.660000,-0.030780,
2025-10-15T05:14:58.601682+00:00,9.665000,-0.024700,
2025-10-15T05:14:58.606683+00:00,9.670000,-0.026220,
2025-10-15T05:14:58.611682+00:00,9.675000,-0.030020,
2025-10-15T05:14:58.616683+00:00,9.680000,-0.034200,
2025-10-15T05:14:58.621682+00:00,9.685000,-0.038000,
2025-10-15T05:14:58.626683+00:00,9.690000,-0.040660,
2025-10-15T05:14:58.631682+00:00,9.695000,-0.036860,
2025-10-15T05:14:58.636683+00:00,9.700000,-0.030400,
2025-10-15T05:14:58.641682+00:00,9.705000,-0.028120,
2025-10-15T05:14:58.646683+00:00,9.710000,-0.034960,
2025-10-15T05:14:58.651682+00:00,9.715000,-0.045600,
2025-10-15T05:14:58.656682+00:00,9.720000,-0.052060,
2025-10-15T05:14:58.661682+00:00,9.725000,-0.052440,
2025-10-15T05:14:58.666682+00:00,9.730000,-0.047120,
2025-10-15T05:14:58.671682+00:00,9.735000,-0.042180,
2025-10-15T05:14:58.676682+00:00,9.740000,-0.041040,
2025-10-15T05:14:58.681682+00:00,9.745000,-0.042180,
2025-10-15T05:14:58.686682+00:00,9.750000,-0.041040,
2025-10-15T05:14:58.691683+00:00,9.755000,-0.037240,
2025-10-15T05:14:58.696682+00:00,9.760000,-0.033440,
2025-10-15T05:14:58.701683+00:00,9.765000,-0.035720,
2025-10-15T05:14:58.706682+00:00,9.770000,-0.045980,
2025-10-15T05:14:58.711683+00:00,9.775000,-0.053200,
2025-10-15T05:14:58.716682+00:00,9.780000,-0.049780,
2025-10-15T05:14:58.721683+00:00,9.785000,-0.040280,
2025-10-15T05:14:58.726682+00:00,9.790000,-0.035720,
2025-10-15T05:14:58.731683+00:00,9.795000,-0.039520,
2025-10-15T05:14:58.736682+00:00,9.800000,-0.047120,
2025-10-15T05:14:58.741683+00:00,9.805000,-0.048640,
2025-10-15T05:14:58.746682+00:00,9.810000,-0.039520,
2025-10-15T05:14:58.751683+00:00,9.815000,-0.032300,
2025-10-15T05:14:58.756682+00:00,9.820000,-0.034960,
2025-10-15T05:14:58.761683+00:00,9.825000,-0.042180,
2025-10-15T05:14:58.766682+00:00,9.830000,-0.045600,
2025-10-15T05:14:58.771683+00:00,9.835000,-0.041800,
2025-10-15T05:14:58.776682+00:00,9.840000,-0.036100,
2025-10-15T05:14:58.781682+00:00,9.845000,-0.030400,
2025-10-15T05:14:58.786682+00:00,9.850000,-0.033060,
2025-10-15T05:14:58.791682+00:00,9.855000,-0.035720,
2025-10-15T05:14:58.796682+00:00,9.860000,-0.030400,
2025-10-15T05:14:58.801682+00:00,9.865000,-0.017860,
2025-10-15T05:14:58.806682+00:00,9.870000,-0.013680,
2025-10-15T05:14:58.811682+00:00,9.875000,-0.020140,
2025-10-15T05:14:58.816683+00:00,9.880000,-0.028120,
2025-10-15T05:14:58.821682+00:00,9.885000,-0.026600,
2025-10-15T05:14:58.826683+00:00,9.890000,-0.021280,
2025-10-15T05:14:58.831682+00:00,9.895000,-0.025460,
2025-10-15T05:14:58.836683+00:00,9.900000,-0.042180,
2025-10-15T05:14:58.841682+00:00,9.905000,-0.057380,
2025-10-15T05:14:58.846683+00:00,9.910000,-0.061560,
2025-10-15T05:14:58.851682+00:00,9.915000,-0.054340,
2025-10-15T05:14:58.856683+00:00,9.920000,-0.043320,
2025-10-15T05:14:58.861682+00:00,9.925000,-0.038380,
2025-10-15T05:14:58.866683+00:00,9.930000,-0.038380,
2025-10-15T05:14:58.871682+00:00,9.935000,-0.044460,
2025-10-15T05:14:58.876683+00:00,9.940000,-0.052440,
2025-10-15T05:14:58.881682+00:00,9.945000,-0.056620,
2025-10-15T05:14:58.886683+00:00,9.950000,-0.055100,
2025-10-15T05:14:58.891682+00:00,9.955000,-0.047120,
2025-10-15T05:14:58.896683+00:00,9.960000,-0.033820,
2025-10-15T05:14:58.901682+00:00,9.965000,-0.024700,
2025-10-15T05:14:58.906682+00:00,9.970000,-0.028880,
2025-10-15T05:14:58.911682+00:00,9.975000,-0.042940,
2025-10-15T05:14:58.916682+00:00,9.980000,-0.051680,
2025-10-15T05:14:58.921682+00:00,9.985000,-0.043700,
2025-10-15T05:14:58.926682+00:00,9.990000,-0.029640,
2025-10-15T05:14:58.931682+00:00,9.995000,-0.027740,
2025-10-15T05:14:58.936682+00:00,10.000000,-0.041040,
2025-10-15T05:14:58.941683+00:00,10.005000,-0.052820,
2025-10-15T05:14:58.946682+00:00,10.010000,-0.047120,
2025-10-15T05:14:58.951683+00:00,10.015000,-0.033060,
2025-10-15T05:14:58.956682+00:00,10.020000,-0.027360,
2025-10-15T05:14:58.961683+00:00,10.025000,-0.038000,
2025-10-15T05:14:58.966682+00:00,10.030000,-0.052820,
2025-10-15T05:14:58.971683+00:00,10.035000,-0.053960,
2025-10-15T05:14:58.976682+00:00,10.040000,-0.042560,
2025-10-15T05:14:58.981683+00:00,10.045000,-0.031160,
2025-10-15T05:14:58.986682+00:00,10.050000,-0.030780,
2025-10-15T05:14:58.991683+00:00,10.055000,-0.038760,
2025-10-15T05:14:58.996682+00:00,10.060000,-0.044460,
2025-10-15T05:14:59.001683+00:00,10.065000,-0.044080,
2025-10-15T05:14:59.006682+00:00,10.070000,-0.037240,
2025-10-15T05:14:59.011683+00:00,10.075000,-0.031160,
2025-10-15T05:14:59.016682+00:00,10.080000,-0.029260,
2025-10-15T05:14:59.021683+00:00,10.085000,-0.035340,
2025-10-15T05:14:59.026682+00:00,10.090000,-0.042180,
2025-10-15T05:14:59.031682+00:00,10.095000,-0.044840,
2025-10-15T05:14:59.036682+00:00,10.100000,-0.042180,
2025-10-15T05:14:59.041682+00:00,10.105000,-0.037620,
2025-10-15T05:14:59.046682+00:00,10.110000,-0.034960,
2025-10-15T05:14:59.051682+00:00,10.115000,-0.036100,
2025-10-15T05:14:59.056682+00:00,10.120000,-0.043700,
2025-10-15T05:14:59.061682+00:00,10.125000,-0.047880,
2025-10-15T05:14:59.066683+00:00,10.130000,-0.039900,
2025-10-15T05:14:59.071682+00:00,10.135000,-0.023940,
2025-10-15T05:14:59.076683+00:00,10.140000,-0.014060,
2025-10-15T05:14:59.081682+00:00,10.145000,-0.015580,
2025-10-15T05:14:59.086683+00:00,10.150000,-0.022420,
2025-10-15T05:14:59.091682+00:00,10.155000,-0.029640,
2025-10-15T05:14:59.096683+00:00,10.160000,-0.033060,
2025-10-15T05:14:59.101682+00:00,10.165000,-0.028880,
2025-10-15T05:14:59.106683+00:00,10.170000,-0.020520,
2025-10-15T05:14:59.111682+00:00,10.175000,-0.022800,
2025-10-15T05:14:59.116683+00:00,10.180000,-0.034580,
2025-10-15T05:14:59.121682+00:00,10.185000,-0.042560,
2025-10-15T05:14:59.126683+00:00,10.190000,-0.030780,
2025-10-15T05:14:59.131682+00:00,10.195000,-0.013300,
2025-10-15T05:14:59.136683+00:00,10.200000,-0.015200,
2025-10-15T05:14:59.141682+00:00,10.205000,-0.030020,
2025-10-15T05:14:59.146683+00:00,10.210000,-0.037620,
2025-10-15T05:14:59.151682+00:00,10.215000,-0.028120,
2025-10-15T05:14:59.156682+00:00,10.220000,-0.022800,
2025-10-15T05:14:59.161682+00:00,10.225000,-0.032300,
2025-10-15T05:14:59.166682+00:00,10.230000,-0.045600,
2025-10-15T05:14:59.171682+00:00,10.235000,-0.048640,
2025-10-15T05:14:59.176682+00:00,10.240000,-0.044840,
2025-10-15T05:14:59.181682+00:00,10.245000,-0.039520,
2025-10-15T05:14:59.186682+00:00,10.250000,-0.038760,
2025-10-15T05:14:59.191683+00:00,10.255000,-0.038380,
2025-10-15T05:14:59.196682+00:00,10.260000,-0.038000,
2025-10-15T05:14:59.201683+00:00,10.265000,-0.041420,
2025-10-15T05:14:59.206682+00:00,10.270000,-0.047120,
2025-10-15T05:14:59.211683+00:00,10.275000,-0.049780,
2025-10-15T05:14:59.216682+00:00,10.280000,-0.043320,
2025-10-15T05:14:59.221683+00:00,10.285000,-0.033060,
2025-10-15T05:14:59.226682+00:00,10.290000,-0.031540,
2025-10-15T05:14:59.231683+00:00,10.295000,-0.038760,
2025-10-15T05:14:59.236682+00:00,10.300000,-0.045600,
2025-10-15T05:14:59.241683+00:00,10.305000,-0.048260,
2025-10-15T05:14:59.246682+00:00,10.310000,-0.046360,
2025-10-15T05:14:59.251683+00:00,10.315000,-0.040660,
2025-10-15T05:14:59.256682+00:00,10.320000,-0.030020,
2025-10-15T05:14:59.261683+00:00,10.325000,-0.022800,
2025-10-15T05:14:59.266682+00:00,10.330000,-0.020900,
2025-10-15T05:14:59.271683+00:00,10.335000,-0.024320,
2025-10-15T05:14:59.276682+00:00,10.340000,-0.025080,
2025-10-15T05:14:59.281682+00:00,10.345000,-0.020900,
2025-10-15T05:14:59.286682+00:00,10.350000,-0.022420,
2025-10-15T05:14:59.291682+00:00,10.355000,-0.031160,
2025-10-15T05:14:59.296682+00:00,10.360000,-0.036860,
2025-10-15T05:14:59.301682+00:00,10.365000,-0.033820,
2025-10-15T05:14:59.306682+00:00,10.370000,-0.031160,
2025-10-15T05:14:59.311682+00:00,10.375000,-0.040280,
2025-10-15T05:14:59.316683+00:00,10.380000,-0.053580,
2025-10-15T05:14:59.321682+00:00,10.385000,-0.059280,
2025-10-15T05:14:59.326683+00:00,10.390000,-0.058520,
2025-10-15T05:14:59.331682+00:00,10.395000,-0.053960,
2025-10-15T05:14:59.336683+00:00,10.400000,-0.051680,
2025-10-15T05:14:59.341682+00:00,10.405000,-0.054720,
2025-10-15T05:14:59.346683+00:00,10.410000,-0.061940,
2025-10-15T05:14:59.351682+00:00,10.415000,-0.068400,
2025-10-15T05:14:59.356683+00:00,10.420000,-0.068020,
2025-10-15T05:14:59.361682+00:00,10.425000,-0.055480,
2025-10-15T05:14:59.366683+00:00,10.430000,-0.042560,
2025-10-15T05:14:59.371682+00:00,10.435000,-0.041800,
2025-10-15T05:14:59.376683+00:00,10.440000,-0.051680,
2025-10-15T05:14:59.381682+00:00,10.445000,-0.063460,
2025-10-15T05:14:59.386683+00:00,10.450000,-0.068780,
2025-10-15T05:14:59.391682+00:00,10.455000,-0.067640,
2025-10-15T05:14:59.396683+00:00,10.460000,-0.059660,
2025-10-15T05:14:59.401682+00:00,10.465000,-0.049020,
2025-10-15T05:14:59.406682+00:00,10.470000,-0.039900,
2025-10-15T05:14:59.411682+00:00,10.475000,-0.035340,
2025-10-15T05:14:59.416682+00:00,10.480000,-0.036480,
2025-10-15T05:14:59.421682+00:00,10.485000,-0.039900,
2025-10-15T05:14:59.426682+00:00,10.490000,-0.041420,
2025-10-15T05:14:59.431682+00:00,10.495000,-0.036100,
2025-10-15T05:14:59.436682+00:00,10.500000,-0.027360,
2025-10-15T05:14:59.441683+00:00,10.505000,-0.025460,
2025-10-15T05:14:59.446682+00:00,10.510000,-0.033820,
2025-10-15T05:14:59.451683+00:00,10.515000,-0.042180,
2025-10-15T05:14:59.456682+00:00,10.520000,-0.040280,
2025-10-15T05:14:59.461683+00:00,10.525000,-0.036480,
2025-10-15T05:14:59.466682+00:00,10.530000,-0.046360,
2025-10-15T05:14:59.471683+00:00,10.535000,-0.059280,
2025-10-15T05:14:59.476682+00:00,10.540000,-0.062320,
2025-10-15T05:14:59.481683+00:00,10.545000,-0.055860,
2025-10-15T05:14:59.486682+00:00,10.550000,-0.056240,
2025-10-15T05:14:59.491683+00:00,10.555000,-0.059660,
2025-10-15T05:14:59.496682+00:00,10.560000,-0.054720,
2025-10-15T05:14:59.501683+00:00,10.565000,-0.037240,
2025-10-15T05:14:59.506682+00:00,10.570000,-0.027740,
2025-10-15T05:14:59.511683+00:00,10.575000,-0.028880,
2025-10-15T05:14:59.516682+00:00,10.580000,-0.033060,
2025-10-15T05:14:59.521683+00:00,10.585000,-0.028500,
2025-10-15T05:14:59.526682+00:00,10.590000,-0.026980,
2025-10-15T05:14:59.531682+00:00,10.595000,-0.031920,
2025-10-15T05:14:59.536682+00:00,10.600000,-0.039900,
2025-10-15T05:14:59.541682+00:00,10.605000,-0.045980,
2025-10-15T05:14:59.546682+00:00,10.610000,-0.044080,
2025-10-15T05:14:59.551682+00:00,10.615000,-0.038380,
2025-10-15T05:14:59.556682+00:00,10.620000,-0.031920,
2025-10-15T05:14:59.561682+00:00,10.625000,-0.025460,
2025-10-15T05:14:59.566683+00:00,10.630000,-0.015580,
2025-10-15T05:14:59.571682+00:00,10.635000,-0.009120,
2025-10-15T05:14:59.576683+00:00,10.640000,-0.012920,
2025-10-15T05:14:59.581682+00:00,10.645000,-0.022800,
2025-10-15T05:14:59.586683+00:00,10.650000,-0.038000,
2025-10-15T05:14:59.591682+00:00,10.655000,-0.052820,
2025-10-15T05:14:59.596683+00:00,10.660000,-0.061940,
2025-10-15T05:14:59.601682+00:00,10.665000,-0.055480,
2025-10-15T05:14:59.606683+00:00,10.670000,-0.036860,
2025-10-15T05:14:59.611682+00:00,10.675000,-0.027360,
2025-10-15T05:14:59.616683+00:00,10.680000,-0.035340,
2025-10-15T05:14:59.621682+00:00,10.685000,-0.049400,
2025-10-15T05:14:59.626683+00:00,10.690000,-0.054720,
2025-10-15T05:14:59.631682+00:00,10.695000,-0.048640,
2025-10-15T05:14:59.636683+00:00,10.700000,-0.038760,
2025-10-15T05:14:59.641682+00:00,10.705000,-0.023560,
2025-10-15T05:14:59.646683+00:00,10.710000,-0.014060,
2025-10-15T05:14:59.651682+00:00,10.715000,-0.014440,
2025-10-15T05:14:59.656682+00:00,10.720000,-0.023180,
2025-10-15T05:14:59.661682+00:00,10.725000,-0.023180,
2025-10-15T05:14:59.666682+00:00,10.730000,-0.022040,
2025-10-15T05:14:59.671682+00:00,10.735000,-0.032680,
2025-10-15T05:14:59.676682+00:00,10.740000,-0.050160,
2025-10-15T05:14:59.681682+00:00,10.745000,-0.058520,
2025-10-15T05:14:59.686682+00:00,10.750000,-0.055100,
2025-10-15T05:14:59.691683+00:00,10.755000,-0.047880,
2025-10-15T05:14:59.696682+00:00,10.760000,-0.045600,
2025-10-15T05:14:59.701683+00:00,10.765000,-0.039900,
2025-10-15T05:14:59.706682+00:00,10.770000,-0.033060,
2025-10-15T05:14:59.711683+00:00,10.775000,-0.029640,
2025-10-15T05:14:59.716682+00:00,10.780000,-0.034580,
2025-10-15T05:14:59.721683+00:00,10.785000,-0.039140,
2025-10-15T05:14:59.726682+00:00,10.790000,-0.036480,
2025-10-15T05:14:59.731683+00:00,10.795000,-0.034200,
2025-10-15T05:14:59.736682+00:00,10.800000,-0.039900,
2025-10-15T05:14:59.741683+00:00,10.805000,-0.049780,
2025-10-15T05:14:59.746682+00:00,10.810000,-0.049020,
2025-10-15T05:14:59.751683+00:00,10.815000,-0.034960,
2025-10-15T05:14:59.756682+00:00,10.820000,-0.025080,
2025-10-15T05:14:59.761683+00:00,10.825000,-0.036480,
2025-10-15T05:14:59.766682+00:00,10.830000,-0.055860,
2025-10-15T05:14:59.771683+00:00,10.835000,-0.058520,
2025-10-15T05:14:59.776682+00:00,10.840000,-0.043700,
2025-10-15T05:14:59.781682+00:00,10.845000,-0.031540,
2025-10-15T05:14:59.786682+00:00,10.850000,-0.032680,
2025-10-15T05:14:59.791682+00:00,10.855000,-0.037240,
2025-10-15T05:14:59.796682+00:00,10.860000,-0.033060,
2025-10-15T05:14:59.801682+00:00,10.865000,-0.024320,
2025-10-15T05:14:59.806682+00:00,10.870000,-0.023180,
2025-10-15T05:14:59.811682+00:00,10.875000,-0.028880,
2025-10-15T05:14:59.816683+00:00,10.880000,-0.034200,
2025-10-15T05:14:59.821682+00:00,10.885000,-0.033820,
2025-10-15T05:14:59.826683+00:00,10.890000,-0.035720,
2025-10-15T05:14:59.831682+00:00,10.895000,-0.041800,
2025-10-15T05:14:59.836683+00:00,10.900000,-0.053200,
2025-10-15T05:14:59.841682+00:00,10.905000,-0.063840,
2025-10-15T05:14:59.846683+00:00,10.910000,-0.064600,
2025-10-15T05:14:59.851682+00:00,10.915000,-0.053960,
2025-10-15T05:14:59.856683+00:00,10.920000,-0.049020,
2025-10-15T05:14:59.861682+00:00,10.925000,-0.053200,
2025-10-15T05:14:59.866683+00:00,10.930000,-0.064980,
2025-10-15T05:14:59.871682+00:00,10.935000,-0.071440,
2025-10-15T05:14:59.876683+00:00,10.940000,-0.066500,
2025-10-15T05:14:59.881682+00:00,10.945000,-0.053960,
2025-10-15T05:14:59.886683+00:00,10.950000,-0.046740,
2025-10-15T05:14:59.891682+00:00,10.955000,-0.039140,
2025-10-15T05:14:59.896683+00:00,10.960000,-0.036100,
2025-10-15T05:14:59.901682+00:00,10.965000,-0.039900,
2025-10-15T05:14:59.906682+00:00,10.970000,-0.048260,
2025-10-15T05:14:59.911682+00:00,10.975000,-0.049020,
2025-10-15T05:14:59.916682+00:00,10.980000,-0.044080,
2025-10-15T05:14:59.921682+00:00,10.985000,-0.041800,
2025-10-15T05:14:59.926682+00:00,10.990000,-0.044080,
2025-10-15T05:14:59.931682+00:00,10.995000,-0.040280,
2025-10-15T05:14:59.936682+00:00,11.000000,-0.029260,
2025-10-15T05:14:59.941683+00:00,11.005000,-0.025840,
2025-10-15T05:14:59.946682+00:00,11.010000,-0.040280,
2025-10-15T05:14:59.951683+00:00,11.015000,-0.055480,
2025-10-15T05:14:59.956682+00:00,11.020000,-0.059280,
2025-10-15T05:14:59.961683+00:00,11.025000,-0.049400,
2025-10-15T05:14:59.966682+00:00,11.030000,-0.035720,
2025-10-15T05:14:59.971683+00:00,11.035000,-0.031540,
2025-10-15T05:14:59.976682+00:00,11.040000,-0.039900,
2025-10-15T05:14:59.981683+00:00,11.045000,-0.051680,
2025-10-15T05:14:59.986682+00:00,11.050000,-0.057380,
2025-10-15T05:14:59.991683+00:00,11.055000,-0.054340,
2025-10-15T05:14:59.996682+00:00,11.060000,-0.050540,
2025-10-15T05:15:00.001683+00:00,11.065000,-0.050160,
2025-10-15T05:15:00.006682+00:00,11.070000,-0.047500,
2025-10-15T05:15:00.011683+00:00,11.075000,-0.040280,
2025-10-15T05:15:00.016682+00:00,11.080000,-0.039520,
2025-10-15T05:15:00.021683+00:00,11.085000,-0.047500,
2025-10-15T05:15:00.026682+00:00,11.090000,-0.048260,
2025-10-15T05:15:00.031682+00:00,11.095000,-0.039140,
2025-10-15T05:15:00.036682+00:00,11.100000,-0.034200,
2025-10-15T05:15:00.041682+00:00,11.105000,-0.042940,
2025-10-15T05:15:00.046682+00:00,11.110000,-0.049780,
2025-10-15T05:15:00.051682+00:00,11.115000,-0.043700,
2025-10-15T05:15:00.056682+00:00,11.120000,-0.035720,
2025-10-15T05:15:00.061682+00:00,11.125000,-0.037240,
2025-10-15T05:15:00.066683+00:00,11.130000,-0.043700,
2025-10-15T05:15:00.071682+00:00,11.135000,-0.045600,
2025-10-15T05:15:00.076683+00:00,11.140000,-0.042940,
2025-10-15T05:15:00.081682+00:00,11.145000,-0.039900,
2025-10-15T05:15:00.086683+00:00,11.150000,-0.036860,
2025-10-15T05:15:00.091682+00:00,11.155000,-0.031540,
2025-10-15T05:15:00.096683+00:00,11.160000,-0.030020,
2025-10-15T05:15:00.101682+00:00,11.165000,-0.031160,
2025-10-15T05:15:00.106683+00:00,11.170000,-0.034200,
2025-10-15T05:15:00.111682+00:00,11.175000,-0.036480,
2025-10-15T05:15:00.116683+00:00,11.180000,-0.040280,
2025-10-15T05:15:00.121682+00:00,11.185000,-0.044840,
2025-10-15T05:15:00.126683+00:00,11.190000,-0.041800,
2025-10-15T05:15:00.131682+00:00,11.195000,-0.034580,
2025-10-15T05:15:00.136683+00:00,11.200000,-0.035340,
2025-10-15T05:15:00.141682+00:00,11.205000,-0.042940,
2025-10-15T05:15:00.146683+00:00,11.210000,-0.045980,
2025-10-15T05:15:00.151682+00:00,11.215000,-0.045980,
2025-10-15T05:15:00.156682+00:00,11.220000,-0.047500,
2025-10-15T05:15:00.161682+00:00,11.225000,-0.046740,
2025-10-15T05:15:00.166682+00:00,11.230000,-0.041420,
2025-10-15T05:15:00.171682+00:00,11.235000,-0.038380,
2025-10-15T05:15:00.176682+00:00,11.240000,-0.039520,
2025-10-15T05:15:00.181682+00:00,11.245000,-0.039900,
2025-10-15T05:15:00.186682+00:00,11.250000,-0.027740,
2025-10-15T05:15:00.191683+00:00,11.255000,-0.017100,
2025-10-15T05:15:00.196682+00:00,11.260000,-0.022420,
2025-10-15T05:15:00.201683+00:00,11.265000,-0.037620,
2025-10-15T05:15:00.206682+00:00,11.270000,-0.047500,
2025-10-15T05:15:00.211683+00:00,11.275000,-0.044080,
2025-10-15T05:15:00.216682+00:00,11.280000,-0.036860,
2025-10-15T05:15:00.221683+00:00,11.285000,-0.036100,
2025-10-15T05:15:00.226682+00:00,11.290000,-0.040280,
2025-10-15T05:15:00.231683+00:00,11.295000,-0.051680,
2025-10-15T05:15:00.236682+00:00,11.300000,-0.060800,
