timestamp_utc,t_rel_sec,ecg_mV,event
2025-10-15T08:10:35.852891+00:00,0.000000,0.000000,
2025-10-15T08:10:35.857891+00:00,0.005000,0.000000,
2025-10-15T08:10:35.862891+00:00,0.010000,-0.001140,
2025-10-15T08:10:35.867891+00:00,0.015000,-0.001900,
2025-10-15T08:10:35.872891+00:00,0.020000,0.017860,
2025-10-15T08:10:35.877891+00:00,0.025000,-0.028120,
2025-10-15T08:10:35.882891+00:00,0.030000,-0.096900,
2025-10-15T08:10:35.887891+00:00,0.035000,0.285760,
2025-10-15T08:10:35.892891+00:00,0.040000,0.224580,
2025-10-15T08:10:35.897891+00:00,0.045000,-1.283640,
2025-10-15T08:10:35.902891+00:00,0.050000,-1.074640,
2025-10-15T08:10:35.907891+00:00,0.055000,2.598440,
2025-10-15T08:10:35.912891+00:00,0.060000,2.814660,
2025-10-15T08:10:35.917891+00:00,0.065000,-8.686040,
2025-10-15T08:10:35.922891+00:00,0.070000,-29.537020,
2025-10-15T08:10:35.927891+00:00,0.075000,-47.334700,
2025-10-15T08:10:35.932891+00:00,0.080000,-48.146000,
2025-10-15T08:10:35.937891+00:00,0.085000,-47.395500,
2025-10-15T08:10:35.942891+00:00,0.090000,-41.532100,
2025-10-15T08:10:35.947891+00:00,0.095000,-37.944520,
2025-10-15T08:10:35.952891+00:00,0.100000,-35.719240,
2025-10-15T08:10:35.957891+00:00,0.105000,-34.520720,
2025-10-15T08:10:35.962891+00:00,0.110000,-34.492600,
2025-10-15T08:10:35.967891+00:00,0.115000,-34.200000,
2025-10-15T08:10:35.972891+00:00,0.120000,-33.401240,
2025-10-15T08:10:35.977891+00:00,0.125000,-32.814140,
2025-10-15T08:10:35.982891+00:00,0.130000,-32.373340,
2025-10-15T08:10:35.987891+00:00,0.135000,-31.866800,
2025-10-15T08:10:35.992891+00:00,0.140000,-31.358740,
2025-10-15T08:10:35.997891+00:00,0.145000,-30.873100,
2025-10-15T08:10:36.002891+00:00,0.150000,-30.394300,
2025-10-15T08:10:36.007891+00:00,0.155000,-29.921580,
2025-10-15T08:10:36.012891+00:00,0.160000,-29.455320,
2025-10-15T08:10:36.017891+00:00,0.165000,-28.996660,
2025-10-15T08:10:36.022891+00:00,0.170000,-28.544840,
2025-10-15T08:10:36.027891+00:00,0.175000,-28.099860,
2025-10-15T08:10:36.032891+00:00,0.180000,-27.662860,
2025-10-15T08:10:36.037891+00:00,0.185000,-27.232320,
2025-10-15T08:10:36.042891+00:00,0.190000,-26.808620,
2025-10-15T08:10:36.047891+00:00,0.195000,-26.392140,
2025-10-15T08:10:36.052891+00:00,0.200000,-25.982120,
2025-10-15T08:10:36.057891+00:00,0.205000,-25.578180,
2025-10-15T08:10:36.062891+00:00,0.210000,-25.179940,
2025-10-15T08:10:36.067891+00:00,0.215000,-24.786260,
2025-10-15T08:10:36.072891+00:00,0.220000,-24.400940,
2025-10-15T08:10:36.077891+00:00,0.225000,-24.022080,
2025-10-15T08:10:36.082891+00:00,0.230000,-23.649680,
2025-10-15T08:10:36.087891+00:00,0.235000,-23.280320,
2025-10-15T08:10:36.092891+00:00,0.240000,-22.915520,
2025-10-15T08:10:36.097891+00:00,0.245000,-22.557940,
2025-10-15T08:10:36.102891+00:00,0.250000,-22.208340,
2025-10-15T08:10:36.107891+00:00,0.255000,-21.864820,
2025-10-15T08:10:36.112891+00:00,0.260000,-21.523960,
2025-10-15T08:10:36.117891+00:00,0.265000,-21.187660,
2025-10-15T08:10:36.122891+00:00,0.270000,-20.857060,
2025-10-15T08:10:36.127891+00:00,0.275000,-20.532920,
2025-10-15T08:10:36.132891+00:00,0.280000,-20.213340,
2025-10-15T08:10:36.137891+00:00,0.285000,-19.897180,
2025-10-15T08:10:36.142891+00:00,0.290000,-19.586720,
2025-10-15T08:10:36.147891+00:00,0.295000,-19.281200,
2025-10-15T08:10:36.152891+00:00,0.300000,-18.981000,
2025-10-15T08:10:36.157891+00:00,0.305000,-18.683840,
2025-10-15T08:10:36.162891+00:00,0.310000,-18.391620,
2025-10-15T08:10:36.167891+00:00,0.315000,-18.103200,
2025-10-15T08:10:36.172891+00:00,0.320000,-17.818200,
2025-10-15T08:10:36.177891+00:00,0.325000,-17.535100,
2025-10-15T08:10:36.182891+00:00,0.330000,-17.257320,
2025-10-15T08:10:36.187891+00:00,0.335000,-16.981820,
2025-10-15T08:10:36.192891+00:00,0.340000,-16.708980,
2025-10-15T08:10:36.197891+00:00,0.345000,-16.440320,
2025-10-15T08:10:36.202891+00:00,0.350000,-16.178500,
2025-10-15T08:10:36.207891+00:00,0.355000,-15.918960,
2025-10-15T08:10:36.212891+00:00,0.360000,-15.659800,
2025-10-15T08:10:36.217891+00:00,0.365000,-15.400260,
2025-10-15T08:10:36.222891+00:00,0.370000,-15.146420,
2025-10-15T08:10:36.227891+00:00,0.375000,-14.899040,
2025-10-15T08:10:36.232891+00:00,0.380000,-14.658120,
2025-10-15T08:10:36.237891+00:00,0.385000,-14.423280,
2025-10-15T08:10:36.242891+00:00,0.390000,-14.191480,
2025-10-15T08:10:36.247891+00:00,0.395000,-13.966520,
2025-10-15T08:10:36.252891+00:00,0.400000,-13.746880,
2025-10-15T08:10:36.257891+00:00,0.405000,-13.529900,
2025-10-15T08:10:36.262891+00:00,0.410000,-13.315200,
2025-10-15T08:10:36.267891+00:00,0.415000,-13.107340,
2025-10-15T08:10:36.272891+00:00,0.420000,-12.903280,
2025-10-15T08:10:36.277891+00:00,0.425000,-12.701880,
2025-10-15T08:10:36.282891+00:00,0.430000,-12.503140,
2025-10-15T08:10:36.287891+00:00,0.435000,-12.308580,
2025-10-15T08:10:36.292891+00:00,0.440000,-12.117060,
2025-10-15T08:10:36.297891+00:00,0.445000,-11.928960,
2025-10-15T08:10:36.302891+00:00,0.450000,-11.743520,
2025-10-15T08:10:36.307891+00:00,0.455000,-11.560360,
2025-10-15T08:10:36.312891+00:00,0.460000,-11.380240,
2025-10-15T08:10:36.317891+00:00,0.465000,-11.202020,
2025-10-15T08:10:36.322891+00:00,0.470000,-11.028360,
2025-10-15T08:10:36.327891+00:00,0.475000,-10.859260,
2025-10-15T08:10:36.332891+00:00,0.480000,-10.690920,
2025-10-15T08:10:36.337891+00:00,0.485000,-10.522960,
2025-10-15T08:10:36.342891+00:00,0.490000,-10.356140,
2025-10-15T08:10:36.347891+00:00,0.495000,-10.193120,
2025-10-15T08:10:36.352891+00:00,0.500000,-10.031620,
2025-10-15T08:10:36.357891+00:00,0.505000,-9.876200,
2025-10-15T08:10:36.362891+00:00,0.510000,-9.715080,
2025-10-15T08:10:36.367891+00:00,0.515000,-9.550160,
2025-10-15T08:10:36.372891+00:00,0.520000,-9.435020,
2025-10-15T08:10:36.377891+00:00,0.525000,-9.295940,
2025-10-15T08:10:36.382891+00:00,0.530000,-8.950140,
2025-10-15T08:10:36.387891+00:00,0.535000,-8.684140,
2025-10-15T08:10:36.392891+00:00,0.540000,-8.917080,
2025-10-15T08:10:36.397891+00:00,0.545000,-8.998400,
2025-10-15T08:10:36.402891+00:00,0.550000,-7.301320,
2025-10-15T08:10:36.407891+00:00,0.555000,-2.850760,
2025-10-15T08:10:36.412891+00:00,0.560000,3.418100,
2025-10-15T08:10:36.417891+00:00,0.565000,9.361300,
2025-10-15T08:10:36.422891+00:00,0.570000,13.607420,
2025-10-15T08:10:36.427891+00:00,0.575000,16.464640,
2025-10-15T08:10:36.432891+00:00,0.580000,18.750340,
2025-10-15T08:10:36.437891+00:00,0.585000,20.610820,
2025-10-15T08:10:36.442891+00:00,0.590000,21.965900,
2025-10-15T08:10:36.447891+00:00,0.595000,22.951620,
2025-10-15T08:10:36.452891+00:00,0.600000,23.644360,
2025-10-15T08:10:36.457891+00:00,0.605000,24.094280,
2025-10-15T08:10:36.462891+00:00,0.610000,24.399800,
2025-10-15T08:10:36.467891+00:00,0.615000,24.576500,
2025-10-15T08:10:36.472891+00:00,0.620000,24.622860,
2025-10-15T08:10:36.477891+00:00,0.625000,24.608040,
2025-10-15T08:10:36.482891+00:00,0.630000,24.541160,
2025-10-15T08:10:36.487891+00:00,0.635000,24.388020,
2025-10-15T08:10:36.492891+00:00,0.640000,24.197260,
2025-10-15T08:10:36.497891+00:00,0.645000,24.010680,
2025-10-15T08:10:36.502891+00:00,0.650000,23.778120,
2025-10-15T08:10:36.507891+00:00,0.655000,23.509460,
2025-10-15T08:10:36.512891+00:00,0.660000,23.256000,
2025-10-15T08:10:36.517891+00:00,0.665000,22.988860,
2025-10-15T08:10:36.522891+00:00,0.670000,22.684100,
2025-10-15T08:10:36.527891+00:00,0.675000,22.397580,
2025-10-15T08:10:36.532891+00:00,0.680000,22.127020,
2025-10-15T08:10:36.537891+00:00,0.685000,21.816180,
2025-10-15T08:10:36.542891+00:00,0.690000,21.502680,
2025-10-15T08:10:36.547891+00:00,0.695000,21.226040,
2025-10-15T08:10:36.552891+00:00,0.700000,20.930400,
2025-10-15T08:10:36.557891+00:00,0.705000,20.613100,
2025-10-15T08:10:36.562891+00:00,0.710000,20.345580,
2025-10-15T08:10:36.567891+00:00,0.715000,20.073500,
2025-10-15T08:10:36.572891+00:00,0.720000,19.729980,
2025-10-15T08:10:36.577891+00:00,0.725000,19.414580,
2025-10-15T08:10:36.582891+00:00,0.730000,19.182400,
2025-10-15T08:10:36.587891+00:00,0.735000,18.932360,
2025-10-15T08:10:36.592891+00:00,0.740000,18.645840,
2025-10-15T08:10:36.597891+00:00,0.745000,18.385920,
2025-10-15T08:10:36.602891+00:00,0.750000,18.111560,
2025-10-15T08:10:36.607891+00:00,0.755000,17.821240,
2025-10-15T08:10:36.612891+00:00,0.760000,17.576900,
2025-10-15T08:10:36.617891+00:00,0.765000,17.332940,
2025-10-15T08:10:36.622891+00:00,0.770000,17.038060,
2025-10-15T08:10:36.627891+00:00,0.775000,16.774720,
2025-10-15T08:10:36.632891+00:00,0.780000,16.540260,
2025-10-15T08:10:36.637891+00:00,0.785000,16.262100,
2025-10-15T08:10:36.642891+00:00,0.790000,16.002560,
2025-10-15T08:10:36.647891+00:00,0.795000,15.798880,
2025-10-15T08:10:36.652891+00:00,0.800000,15.560240,
2025-10-15T08:10:36.657891+00:00,0.805000,15.297660,
2025-10-15T08:10:36.662891+00:00,0.810000,15.094740,
2025-10-15T08:10:36.667891+00:00,0.815000,14.887640,
2025-10-15T08:10:36.672891+00:00,0.820000,14.631140,
2025-10-15T08:10:36.677891+00:00,0.825000,14.414540,
2025-10-15T08:10:36.682891+00:00,0.830000,14.228340,
2025-10-15T08:10:36.687891+00:00,0.835000,13.994260,
2025-10-15T08:10:36.692891+00:00,0.840000,13.768920,
2025-10-15T08:10:36.697891+00:00,0.845000,13.594500,
2025-10-15T08:10:36.702891+00:00,0.850000,13.380180,
2025-10-15T08:10:36.707891+00:00,0.855000,13.140400,
2025-10-15T08:10:36.712891+00:00,0.860000,12.961040,
2025-10-15T08:10:36.717891+00:00,0.865000,12.779780,
2025-10-15T08:10:36.722891+00:00,0.870000,12.552160,
2025-10-15T08:10:36.727891+00:00,0.875000,12.367860,
2025-10-15T08:10:36.732891+00:00,0.880000,12.215100,
2025-10-15T08:10:36.737891+00:00,0.885000,12.007620,
2025-10-15T08:10:36.742891+00:00,0.890000,11.805840,
2025-10-15T08:10:36.747891+00:00,0.895000,11.658020,
2025-10-15T08:10:36.752891+00:00,0.900000,11.476760,
2025-10-15T08:10:36.757891+00:00,0.905000,11.272700,
2025-10-15T08:10:36.762891+00:00,0.910000,11.127160,
2025-10-15T08:10:36.767891+00:00,0.915000,10.977440,
2025-10-15T08:10:36.772891+00:00,0.920000,10.777180,
2025-10-15T08:10:36.777891+00:00,0.925000,10.612640,
2025-10-15T08:10:36.782891+00:00,0.930000,10.482680,
2025-10-15T08:10:36.787891+00:00,0.935000,10.312440,
2025-10-15T08:10:36.792891+00:00,0.940000,10.132700,
2025-10-15T08:10:36.797891+00:00,0.945000,9.973480,
2025-10-15T08:10:36.802891+00:00,0.950000,9.830600,
2025-10-15T08:10:36.807891+00:00,0.955000,9.744720,
2025-10-15T08:10:36.812891+00:00,0.960000,9.677460,
2025-10-15T08:10:36.817891+00:00,0.965000,9.487840,
2025-10-15T08:10:36.822891+00:00,0.970000,9.218040,
2025-10-15T08:10:36.827891+00:00,0.975000,9.042100,
2025-10-15T08:10:36.832891+00:00,0.980000,8.941400,
2025-10-15T08:10:36.837891+00:00,0.985000,8.799660,
2025-10-15T08:10:36.842891+00:00,0.990000,8.653740,
2025-10-15T08:10:36.847891+00:00,0.995000,8.546200,
2025-10-15T08:10:36.852891+00:00,1.000000,8.420800,
2025-10-15T08:10:36.857891+00:00,1.005000,8.277540,
2025-10-15T08:10:36.862891+00:00,1.010000,8.170760,
2025-10-15T08:10:36.867891+00:00,1.015000,8.062840,
2025-10-15T08:10:36.872891+00:00,1.020000,7.921860,
2025-10-15T08:10:36.877891+00:00,1.025000,7.800640,
2025-10-15T08:10:36.882891+00:00,1.030000,7.695380,
2025-10-15T08:10:36.887891+00:00,1.035000,7.562760,
2025-10-15T08:10:36.892891+00:00,1.040000,7.443060,
2025-10-15T08:10:36.897891+00:00,1.045000,7.365160,
2025-10-15T08:10:36.902891+00:00,1.050000,7.256480,
2025-10-15T08:10:36.907891+00:00,1.055000,7.115120,
2025-10-15T08:10:36.912891+00:00,1.060000,7.031900,
2025-10-15T08:10:36.917891+00:00,1.065000,6.956660,
2025-10-15T08:10:36.922891+00:00,1.070000,6.793260,
2025-10-15T08:10:36.927891+00:00,1.075000,6.629860,
2025-10-15T08:10:36.932891+00:00,1.080000,6.545880,
2025-10-15T08:10:36.937891+00:00,1.085000,6.473680,
2025-10-15T08:10:36.942891+00:00,1.090000,6.393880,
2025-10-15T08:10:36.947891+00:00,1.095000,6.336120,
2025-10-15T08:10:36.952891+00:00,1.100000,6.245680,
2025-10-15T08:10:36.957891+00:00,1.105000,6.122180,
2025-10-15T08:10:36.962891+00:00,1.110000,6.043140,
2025-10-15T08:10:36.967891+00:00,1.115000,5.967900,
2025-10-15T08:10:36.972891+00:00,1.120000,5.842120,
2025-10-15T08:10:36.977891+00:00,1.125000,5.747880,
2025-10-15T08:10:36.982891+00:00,1.130000,5.685940,
2025-10-15T08:10:36.987891+00:00,1.135000,5.571560,
2025-10-15T08:10:36.992891+00:00,1.140000,5.464020,
2025-10-15T08:10:36.997891+00:00,1.145000,5.413100,
2025-10-15T08:10:37.002891+00:00,1.150000,5.330640,
2025-10-15T08:10:37.007891+00:00,1.155000,5.219300,
2025-10-15T08:10:37.012891+00:00,1.160000,5.163060,
2025-10-15T08:10:37.017891+00:00,1.165000,5.100740,
2025-10-15T08:10:37.022891+00:00,1.170000,4.984460,
2025-10-15T08:10:37.027891+00:00,1.175000,4.902760,
2025-10-15T08:10:37.032891+00:00,1.180000,4.854120,
2025-10-15T08:10:37.037891+00:00,1.185000,4.755700,
2025-10-15T08:10:37.042891+00:00,1.190000,4.666020,
2025-10-15T08:10:37.047891+00:00,1.195000,4.629160,
2025-10-15T08:10:37.052891+00:00,1.200000,4.556200,
2025-10-15T08:10:37.057891+00:00,1.205000,4.451700,
2025-10-15T08:10:37.062891+00:00,1.210000,4.406480,
2025-10-15T08:10:37.067891+00:00,1.215000,4.360500,
2025-10-15T08:10:37.072891+00:00,1.220000,4.259420,
2025-10-15T08:10:37.077891+00:00,1.225000,4.191400,
2025-10-15T08:10:37.082891+00:00,1.230000,4.158340,
2025-10-15T08:10:37.087891+00:00,1.235000,4.075120,
2025-10-15T08:10:37.092891+00:00,1.240000,3.999120,
2025-10-15T08:10:37.097891+00:00,1.245000,3.972520,
2025-10-15T08:10:37.102891+00:00,1.250000,3.909060,
2025-10-15T08:10:37.107891+00:00,1.255000,3.817480,
2025-10-15T08:10:37.112891+00:00,1.260000,3.789360,
2025-10-15T08:10:37.117891+00:00,1.265000,3.757820,
2025-10-15T08:10:37.122891+00:00,1.270000,3.664340,
2025-10-15T08:10:37.127891+00:00,1.275000,3.602400,
2025-10-15T08:10:37.132891+00:00,1.280000,3.572380,
2025-10-15T08:10:37.137891+00:00,1.285000,3.491820,
2025-10-15T08:10:37.142891+00:00,1.290000,3.412780,
2025-10-15T08:10:37.147891+00:00,1.295000,3.385420,
2025-10-15T08:10:37.152891+00:00,1.300000,3.325380,
2025-10-15T08:10:37.157891+00:00,1.305000,3.242160,
2025-10-15T08:10:37.162891+00:00,1.310000,3.222400,
2025-10-15T08:10:37.167891+00:00,1.315000,3.196560,
2025-10-15T08:10:37.172891+00:00,1.320000,3.113720,
2025-10-15T08:10:37.177891+00:00,1.325000,3.064700,
2025-10-15T08:10:37.182891+00:00,1.330000,3.048360,
2025-10-15T08:10:37.187891+00:00,1.335000,2.977680,
2025-10-15T08:10:37.192891+00:00,1.340000,2.910800,
2025-10-15T08:10:37.197891+00:00,1.345000,2.898640,
2025-10-15T08:10:37.202891+00:00,1.350000,2.848860,
2025-10-15T08:10:37.207891+00:00,1.355000,2.767540,
2025-10-15T08:10:37.212891+00:00,1.360000,2.740940,
2025-10-15T08:10:37.217891+00:00,1.365000,2.712820,
2025-10-15T08:10:37.222891+00:00,1.370000,2.633020,
2025-10-15T08:10:37.227891+00:00,1.375000,2.589320,
2025-10-15T08:10:37.232891+00:00,1.380000,2.575640,
2025-10-15T08:10:37.237891+00:00,1.385000,2.507240,
2025-10-15T08:10:37.242891+00:00,1.390000,2.446440,
2025-10-15T08:10:37.247891+00:00,1.395000,2.440360,
2025-10-15T08:10:37.252891+00:00,1.400000,2.402740,
2025-10-15T08:10:37.257891+00:00,1.405000,2.335860,
2025-10-15T08:10:37.262891+00:00,1.410000,2.326740,
2025-10-15T08:10:37.267891+00:00,1.415000,2.312680,
2025-10-15T08:10:37.272891+00:00,1.420000,2.245040,
2025-10-15T08:10:37.277891+00:00,1.425000,2.210080,
2025-10-15T08:10:37.282891+00:00,1.430000,2.204760,
2025-10-15T08:10:37.287891+00:00,1.435000,2.141680,
2025-10-15T08:10:37.292891+00:00,1.440000,2.086960,
2025-10-15T08:10:37.297891+00:00,1.445000,2.087340,
2025-10-15T08:10:37.302891+00:00,1.450000,2.053140,
2025-10-15T08:10:37.307891+00:00,1.455000,1.984360,
2025-10-15T08:10:37.312891+00:00,1.460000,1.973340,
2025-10-15T08:10:37.317891+00:00,1.465000,1.961560,
2025-10-15T08:10:37.322891+00:00,1.470000,1.903040,
2025-10-15T08:10:37.327891+00:00,1.475000,1.879100,
2025-10-15T08:10:37.332891+00:00,1.480000,1.886320,
2025-10-15T08:10:37.337891+00:00,1.485000,1.834640,
2025-10-15T08:10:37.342891+00:00,1.490000,1.787520,
2025-10-15T08:10:37.347891+00:00,1.495000,1.795880,
2025-10-15T08:10:37.352891+00:00,1.500000,1.766620,
2025-10-15T08:10:37.357891+00:00,1.505000,1.703160,
2025-10-15T08:10:37.362891+00:00,1.510000,1.694800,
2025-10-15T08:10:37.367891+00:00,1.515000,1.684160,
2025-10-15T08:10:37.372891+00:00,1.520000,1.621840,
2025-10-15T08:10:37.377891+00:00,1.525000,1.600560,
2025-10-15T08:10:37.382891+00:00,1.530000,1.611200,
2025-10-15T08:10:37.387891+00:00,1.535000,1.563700,
2025-10-15T08:10:37.392891+00:00,1.540000,1.518480,
2025-10-15T08:10:37.397891+00:00,1.545000,1.528360,
2025-10-15T08:10:37.402891+00:00,1.550000,1.501380,
2025-10-15T08:10:37.407891+00:00,1.555000,1.446660,
2025-10-15T08:10:37.412891+00:00,1.560000,1.451980,
2025-10-15T08:10:37.417891+00:00,1.565000,1.455020,
2025-10-15T08:10:37.422891+00:00,1.570000,1.401060,
2025-10-15T08:10:37.427891+00:00,1.575000,1.382820,
2025-10-15T08:10:37.432891+00:00,1.580000,1.394220,
2025-10-15T08:10:37.437891+00:00,1.585000,1.352040,
2025-10-15T08:10:37.442891+00:00,1.590000,1.315560,
2025-10-15T08:10:37.447891+00:00,1.595000,1.334940,
2025-10-15T08:10:37.452891+00:00,1.600000,1.314800,
2025-10-15T08:10:37.457891+00:00,1.605000,1.260840,
2025-10-15T08:10:37.462891+00:00,1.610000,1.265020,
2025-10-15T08:10:37.467891+00:00,1.615000,1.264260,
2025-10-15T08:10:37.472891+00:00,1.620000,1.206880,
2025-10-15T08:10:37.477891+00:00,1.625000,1.186740,
2025-10-15T08:10:37.482891+00:00,1.630000,1.202700,
2025-10-15T08:10:37.487891+00:00,1.635000,1.166980,
2025-10-15T08:10:37.492891+00:00,1.640000,1.136960,
2025-10-15T08:10:37.497891+00:00,1.645000,1.157860,
2025-10-15T08:10:37.502891+00:00,1.650000,1.139620,
2025-10-15T08:10:37.507891+00:00,1.655000,1.090600,
2025-10-15T08:10:37.512891+00:00,1.660000,1.100860,
2025-10-15T08:10:37.517891+00:00,1.665000,1.104660,
2025-10-15T08:10:37.522891+00:00,1.670000,1.051840,
2025-10-15T08:10:37.527891+00:00,1.675000,1.032840,
2025-10-15T08:10:37.532891+00:00,1.680000,1.043860,
2025-10-15T08:10:37.537891+00:00,1.685000,0.998260,
2025-10-15T08:10:37.542891+00:00,1.690000,0.959500,
2025-10-15T08:10:37.547891+00:00,1.695000,0.979260,
2025-10-15T08:10:37.552891+00:00,1.700000,0.965580,
2025-10-15T08:10:37.557891+00:00,1.705000,0.923400,
2025-10-15T08:10:37.562891+00:00,1.710000,0.938980,
2025-10-15T08:10:37.567891+00:00,1.715000,0.947720,
2025-10-15T08:10:37.572891+00:00,1.720000,0.898320,
2025-10-15T08:10:37.577891+00:00,1.725000,0.871720,
2025-10-15T08:10:37.582891+00:00,1.730000,0.883500,
2025-10-15T08:10:37.587891+00:00,1.735000,0.882740,
2025-10-15T08:10:37.592891+00:00,1.740000,0.878560,
2025-10-15T08:10:37.597891+00:00,1.745000,0.840560,
2025-10-15T08:10:37.602891+00:00,1.750000,0.739860,
2025-10-15T08:10:37.607891+00:00,1.755000,0.703000,
2025-10-15T08:10:37.612891+00:00,1.760000,0.787740,
2025-10-15T08:10:37.617891+00:00,1.765000,0.837140,
2025-10-15T08:10:37.622891+00:00,1.770000,0.795340,
2025-10-15T08:10:37.627891+00:00,1.775000,0.777860,
2025-10-15T08:10:37.632891+00:00,1.780000,0.796480,
2025-10-15T08:10:37.637891+00:00,1.785000,0.776720,
2025-10-15T08:10:37.642891+00:00,1.790000,0.752020,
2025-10-15T08:10:37.647891+00:00,1.795000,0.756960,
2025-10-15T08:10:37.652891+00:00,1.800000,0.734540,
2025-10-15T08:10:37.657891+00:00,1.805000,0.695020,
2025-10-15T08:10:37.662891+00:00,1.810000,0.696920,
2025-10-15T08:10:37.667891+00:00,1.815000,0.702620,
2025-10-15T08:10:37.672891+00:00,1.820000,0.675260,
2025-10-15T08:10:37.677891+00:00,1.825000,0.666140,
2025-10-15T08:10:37.682891+00:00,1.830000,0.674120,
2025-10-15T08:10:37.687891+00:00,1.835000,0.646380,
2025-10-15T08:10:37.692891+00:00,1.840000,0.621300,
2025-10-15T08:10:37.697891+00:00,1.845000,0.635740,
2025-10-15T08:10:37.702891+00:00,1.850000,0.626620,
2025-10-15T08:10:37.707891+00:00,1.855000,0.587860,
2025-10-15T08:10:37.712891+00:00,1.860000,0.587480,
2025-10-15T08:10:37.717891+00:00,1.865000,0.590140,
2025-10-15T08:10:37.722891+00:00,1.870000,0.540360,
2025-10-15T08:10:37.727891+00:00,1.875000,0.525920,
2025-10-15T08:10:37.732891+00:00,1.880000,0.579120,
2025-10-15T08:10:37.737891+00:00,1.885000,0.586340,
2025-10-15T08:10:37.742891+00:00,1.890000,0.541500,
2025-10-15T08:10:37.747891+00:00,1.895000,0.532760,
2025-10-15T08:10:37.752891+00:00,1.900000,0.522120,
2025-10-15T08:10:37.757891+00:00,1.905000,0.481840,
2025-10-15T08:10:37.762891+00:00,1.910000,0.477280,
2025-10-15T08:10:37.767891+00:00,1.915000,0.484880,
2025-10-15T08:10:37.772891+00:00,1.920000,0.449920,
2025-10-15T08:10:37.777891+00:00,1.925000,0.445740,
2025-10-15T08:10:37.782891+00:00,1.930000,0.474620,
2025-10-15T08:10:37.787891+00:00,1.935000,0.447260,
2025-10-15T08:10:37.792891+00:00,1.940000,0.414580,
2025-10-15T08:10:37.797891+00:00,1.945000,0.439280,
2025-10-15T08:10:37.802891+00:00,1.950000,0.435480,
2025-10-15T08:10:37.807891+00:00,1.955000,0.403180,
2025-10-15T08:10:37.812891+00:00,1.960000,0.423320,
2025-10-15T08:10:37.817891+00:00,1.965000,0.438900,
2025-10-15T08:10:37.822891+00:00,1.970000,0.399000,
2025-10-15T08:10:37.827891+00:00,1.975000,0.405460,
2025-10-15T08:10:37.832891+00:00,1.980000,0.454480,
2025-10-15T08:10:37.837891+00:00,1.985000,0.443460,
2025-10-15T08:10:37.842891+00:00,1.990000,0.419900,
2025-10-15T08:10:37.847891+00:00,1.995000,0.438520,
2025-10-15T08:10:37.852891+00:00,2.000000,0.421420,
2025-10-15T08:10:37.857891+00:00,2.005000,0.373920,
2025-10-15T08:10:37.862891+00:00,2.010000,0.386840,
2025-10-15T08:10:37.867891+00:00,2.015000,0.402800,
2025-10-15T08:10:37.872891+00:00,2.020000,0.362900,
2025-10-15T08:10:37.877891+00:00,2.025000,0.352260,
2025-10-15T08:10:37.882891+00:00,2.030000,0.370120,
2025-10-15T08:10:37.887891+00:00,2.035000,0.333260,
2025-10-15T08:10:37.892891+00:00,2.040000,0.308940,
2025-10-15T08:10:37.897891+00:00,2.045000,0.346940,
2025-10-15T08:10:37.902891+00:00,2.050000,0.347320,
2025-10-15T08:10:37.907891+00:00,2.055000,0.307420,
2025-10-15T08:10:37.912891+00:00,2.060000,0.324140,
2025-10-15T08:10:37.917891+00:00,2.065000,0.346560,
2025-10-15T08:10:37.922891+00:00,2.070000,0.313500,
2025-10-15T08:10:37.927891+00:00,2.075000,0.317300,
2025-10-15T08:10:37.932891+00:00,2.080000,0.353780,
2025-10-15T08:10:37.937891+00:00,2.085000,0.329460,
2025-10-15T08:10:37.942891+00:00,2.090000,0.304380,
2025-10-15T08:10:37.947891+00:00,2.095000,0.332500,
2025-10-15T08:10:37.952891+00:00,2.100000,0.325660,
2025-10-15T08:10:37.957891+00:00,2.105000,0.281200,
2025-10-15T08:10:37.962891+00:00,2.110000,0.291460,
2025-10-15T08:10:37.967891+00:00,2.115000,0.299820,
2025-10-15T08:10:37.972891+00:00,2.120000,0.254980,
2025-10-15T08:10:37.977891+00:00,2.125000,0.245480,
2025-10-15T08:10:37.982891+00:00,2.130000,0.268660,
2025-10-15T08:10:37.987891+00:00,2.135000,0.238260,
2025-10-15T08:10:37.992891+00:00,2.140000,0.215080,
2025-10-15T08:10:37.997891+00:00,2.145000,0.253460,
2025-10-15T08:10:38.002891+00:00,2.150000,0.252320,
2025-10-15T08:10:38.007891+00:00,2.155000,0.210900,
2025-10-15T08:10:38.012891+00:00,2.160000,0.224960,
2025-10-15T08:10:38.017891+00:00,2.165000,0.237880,
2025-10-15T08:10:38.022891+00:00,2.170000,0.200640,
2025-10-15T08:10:38.027891+00:00,2.175000,0.205580,
2025-10-15T08:10:38.032891+00:00,2.180000,0.247760,
2025-10-15T08:10:38.037891+00:00,2.185000,0.231040,
2025-10-15T08:10:38.042891+00:00,2.190000,0.215080,
2025-10-15T08:10:38.047891+00:00,2.195000,0.261060,
2025-10-15T08:10:38.052891+00:00,2.200000,0.271320,
2025-10-15T08:10:38.057891+00:00,2.205000,0.242060,
2025-10-15T08:10:38.062891+00:00,2.210000,0.271320,
2025-10-15T08:10:38.067891+00:00,2.215000,0.307420,
2025-10-15T08:10:38.072891+00:00,2.220000,0.298680,
2025-10-15T08:10:38.077891+00:00,2.225000,0.353020,
2025-10-15T08:10:38.082891+00:00,2.230000,0.468160,
2025-10-15T08:10:38.087891+00:00,2.235000,0.508060,
2025-10-15T08:10:38.092891+00:00,2.240000,0.499700,
2025-10-15T08:10:38.097891+00:00,2.245000,0.510340,
2025-10-15T08:10:38.102891+00:00,2.250000,0.471200,
2025-10-15T08:10:38.107891+00:00,2.255000,0.396720,
2025-10-15T08:10:38.112891+00:00,2.260000,0.383800,
2025-10-15T08:10:38.117891+00:00,2.265000,0.369360,
2025-10-15T08:10:38.122891+00:00,2.270000,0.289560,
2025-10-15T08:10:38.127891+00:00,2.275000,0.248140,
2025-10-15T08:10:38.132891+00:00,2.280000,0.246240,
2025-10-15T08:10:38.137891+00:00,2.285000,0.189240,
2025-10-15T08:10:38.142891+00:00,2.290000,0.144400,
2025-10-15T08:10:38.147891+00:00,2.295000,0.167580,
2025-10-15T08:10:38.152891+00:00,2.300000,0.153520,
2025-10-15T08:10:38.157891+00:00,2.305000,0.102600,
2025-10-15T08:10:38.162891+00:00,2.310000,0.115520,
2025-10-15T08:10:38.167891+00:00,2.315000,0.129580,
2025-10-15T08:10:38.172891+00:00,2.320000,0.081320,
2025-10-15T08:10:38.177891+00:00,2.325000,0.074860,
2025-10-15T08:10:38.182891+00:00,2.330000,0.107540,
2025-10-15T08:10:38.187891+00:00,2.335000,0.080940,
2025-10-15T08:10:38.192891+00:00,2.340000,0.054720,
2025-10-15T08:10:38.197891+00:00,2.345000,0.088160,
2025-10-15T08:10:38.202891+00:00,2.350000,0.082080,
2025-10-15T08:10:38.207891+00:00,2.355000,0.037240,
2025-10-15T08:10:38.212891+00:00,2.360000,0.053200,
2025-10-15T08:10:38.217891+00:00,2.365000,0.067640,
2025-10-15T08:10:38.222891+00:00,2.370000,0.024320,
2025-10-15T08:10:38.227891+00:00,2.375000,0.021660,
2025-10-15T08:10:38.232891+00:00,2.380000,0.054340,
2025-10-15T08:10:38.237891+00:00,2.385000,0.030020,
2025-10-15T08:10:38.242891+00:00,2.390000,0.005700,
2025-10-15T08:10:38.247891+00:00,2.395000,0.032680,
2025-10-15T08:10:38.252891+00:00,2.400000,0.009880,
2025-10-15T08:10:38.257891+00:00,2.405000,-0.050160,
2025-10-15T08:10:38.262891+00:00,2.410000,-0.043320,
2025-10-15T08:10:38.267891+00:00,2.415000,-0.033820,
2025-10-15T08:10:38.272891+00:00,2.420000,-0.072960,
2025-10-15T08:10:38.277891+00:00,2.425000,-0.061180,
2025-10-15T08:10:38.282891+00:00,2.430000,-0.010640,
2025-10-15T08:10:38.287891+00:00,2.435000,-0.028880,
2025-10-15T08:10:38.292891+00:00,2.440000,-0.053200,
2025-10-15T08:10:38.297891+00:00,2.445000,-0.021660,
2025-10-15T08:10:38.302891+00:00,2.450000,-0.024320,
2025-10-15T08:10:38.307891+00:00,2.455000,-0.058140,
2025-10-15T08:10:38.312891+00:00,2.460000,-0.029640,
2025-10-15T08:10:38.317891+00:00,2.465000,-0.007980,
2025-10-15T08:10:38.322891+00:00,2.470000,-0.051680,
2025-10-15T08:10:38.327891+00:00,2.475000,-0.053200,
2025-10-15T08:10:38.332891+00:00,2.480000,-0.012540,
2025-10-15T08:10:38.337891+00:00,2.485000,-0.026980,
2025-10-15T08:10:38.342891+00:00,2.490000,-0.041800,
2025-10-15T08:10:38.347891+00:00,2.495000,-0.003800,
2025-10-15T08:10:38.352891+00:00,2.500000,-0.009120,
2025-10-15T08:10:38.357891+00:00,2.505000,-0.051300,
2025-10-15T08:10:38.362891+00:00,2.510000,-0.032680,
2025-10-15T08:10:38.367891+00:00,2.515000,-0.014820,
2025-10-15T08:10:38.372891+00:00,2.520000,-0.053960,
2025-10-15T08:10:38.377891+00:00,2.525000,-0.052440,
2025-10-15T08:10:38.382891+00:00,2.530000,-0.015200,
2025-10-15T08:10:38.387891+00:00,2.535000,-0.036100,
2025-10-15T08:10:38.392891+00:00,2.540000,-0.052820,
2025-10-15T08:10:38.397891+00:00,2.545000,-0.009120,
2025-10-15T08:10:38.402891+00:00,2.550000,-0.004180,
2025-10-15T08:10:38.407891+00:00,2.555000,-0.037240,
2025-10-15T08:10:38.412891+00:00,2.560000,-0.013680,
2025-10-15T08:10:38.417891+00:00,2.565000,0.003800,
2025-10-15T08:10:38.422891+00:00,2.570000,-0.035340,
2025-10-15T08:10:38.427891+00:00,2.575000,-0.032300,
2025-10-15T08:10:38.432891+00:00,2.580000,0.008740,
2025-10-15T08:10:38.437891+00:00,2.585000,-0.012920,
2025-10-15T08:10:38.442891+00:00,2.590000,-0.039140,
2025-10-15T08:10:38.447891+00:00,2.595000,-0.014440,
2025-10-15T08:10:38.452891+00:00,2.600000,-0.032680,
2025-10-15T08:10:38.457891+00:00,2.605000,-0.081700,
2025-10-15T08:10:38.462891+00:00,2.610000,-0.065360,
2025-10-15T08:10:38.467891+00:00,2.615000,-0.039900,
2025-10-15T08:10:38.472891+00:00,2.620000,-0.069160,
2025-10-15T08:10:38.477891+00:00,2.625000,-0.061180,
2025-10-15T08:10:38.482891+00:00,2.630000,-0.019000,
2025-10-15T08:10:38.487891+00:00,2.635000,-0.038380,
2025-10-15T08:10:38.492891+00:00,2.640000,-0.074100,
2025-10-15T08:10:38.497891+00:00,2.645000,-0.082460,
2025-10-15T08:10:38.502891+00:00,2.650000,-0.140600,
2025-10-15T08:10:38.507891+00:00,2.655000,-0.210900,
2025-10-15T08:10:38.512891+00:00,2.660000,-0.186580,
2025-10-15T08:10:38.517891+00:00,2.665000,-0.134900,
2025-10-15T08:10:38.522891+00:00,2.670000,-0.129580,
2025-10-15T08:10:38.527891+00:00,2.675000,-0.104500,
2025-10-15T08:10:38.532891+00:00,2.680000,-0.057760,
2025-10-15T08:10:38.537891+00:00,2.685000,-0.030400,
2025-10-15T08:10:38.542891+00:00,2.690000,0.004180,
2025-10-15T08:10:38.547891+00:00,2.695000,0.010640,
2025-10-15T08:10:38.552891+00:00,2.700000,-0.063080,
2025-10-15T08:10:38.557891+00:00,2.705000,-0.096900,
2025-10-15T08:10:38.562891+00:00,2.710000,-0.011020,
2025-10-15T08:10:38.567891+00:00,2.715000,0.053580,
2025-10-15T08:10:38.572891+00:00,2.720000,0.028500,
2025-10-15T08:10:38.577891+00:00,2.725000,0.021280,
2025-10-15T08:10:38.582891+00:00,2.730000,0.046360,
2025-10-15T08:10:38.587891+00:00,2.735000,0.033820,
2025-10-15T08:10:38.592891+00:00,2.740000,0.019380,
2025-10-15T08:10:38.597891+00:00,2.745000,0.042560,
2025-10-15T08:10:38.602891+00:00,2.750000,0.042940,
2025-10-15T08:10:38.607891+00:00,2.755000,0.019000,
2025-10-15T08:10:38.612891+00:00,2.760000,0.031160,
2025-10-15T08:10:38.617891+00:00,2.765000,0.045220,
2025-10-15T08:10:38.622891+00:00,2.770000,0.021280,
2025-10-15T08:10:38.627891+00:00,2.775000,0.015960,
2025-10-15T08:10:38.632891+00:00,2.780000,0.034580,
2025-10-15T08:10:38.637891+00:00,2.785000,0.019380,
2025-10-15T08:10:38.642891+00:00,2.790000,0.003040,
2025-10-15T08:10:38.647891+00:00,2.795000,0.024700,
2025-10-15T08:10:38.652891+00:00,2.800000,0.027740,
2025-10-15T08:10:38.657891+00:00,2.805000,0.009880,
2025-10-15T08:10:38.662891+00:00,2.810000,0.028500,
2025-10-15T08:10:38.667891+00:00,2.815000,0.047500,
2025-10-15T08:10:38.672891+00:00,2.820000,0.027360,
2025-10-15T08:10:38.677891+00:00,2.825000,0.024700,
2025-10-15T08:10:38.682891+00:00,2.830000,0.038380,
2025-10-15T08:10:38.687891+00:00,2.835000,0.015960,
2025-10-15T08:10:38.692891+00:00,2.840000,-0.003420,
2025-10-15T08:10:38.697891+00:00,2.845000,0.020900,
2025-10-15T08:10:38.702891+00:00,2.850000,0.024700,
2025-10-15T08:10:38.707891+00:00,2.855000,0.003420,
2025-10-15T08:10:38.712891+00:00,2.860000,0.013680,
2025-10-15T08:10:38.717891+00:00,2.865000,0.026220,
2025-10-15T08:10:38.722891+00:00,2.870000,0.006840,
2025-10-15T08:10:38.727891+00:00,2.875000,0.012540,
2025-10-15T08:10:38.732891+00:00,2.880000,0.040660,
2025-10-15T08:10:38.737891+00:00,2.885000,0.028120,
2025-10-15T08:10:38.742891+00:00,2.890000,0.008740,
2025-10-15T08:10:38.747891+00:00,2.895000,0.028120,
2025-10-15T08:10:38.752891+00:00,2.900000,0.026220,
2025-10-15T08:10:38.757891+00:00,2.905000,-0.001900,
2025-10-15T08:10:38.762891+00:00,2.910000,0.018240,
2025-10-15T08:10:38.767891+00:00,2.915000,0.042180,
2025-10-15T08:10:38.772891+00:00,2.920000,-0.012540,
2025-10-15T08:10:38.777891+00:00,2.925000,-0.048260,
2025-10-15T08:10:38.782891+00:00,2.930000,0.005320,
2025-10-15T08:10:38.787891+00:00,2.935000,0.044080,
2025-10-15T08:10:38.792891+00:00,2.940000,0.034200,
2025-10-15T08:10:38.797891+00:00,2.945000,0.042180,
2025-10-15T08:10:38.802891+00:00,2.950000,0.041800,
2025-10-15T08:10:38.807891+00:00,2.955000,0.020520,
2025-10-15T08:10:38.812891+00:00,2.960000,0.040660,
2025-10-15T08:10:38.817891+00:00,2.965000,0.062700,
2025-10-15T08:10:38.822891+00:00,2.970000,0.026980,
2025-10-15T08:10:38.827891+00:00,2.975000,0.023180,
2025-10-15T08:10:38.832891+00:00,2.980000,0.058520,
2025-10-15T08:10:38.837891+00:00,2.985000,0.037240,
2025-10-15T08:10:38.842891+00:00,2.990000,0.008740,
2025-10-15T08:10:38.847891+00:00,2.995000,0.036860,
2025-10-15T08:10:38.852891+00:00,3.000000,0.039520,
2025-10-15T08:10:38.857891+00:00,3.005000,0.007980,
2025-10-15T08:10:38.862891+00:00,3.010000,0.035720,
2025-10-15T08:10:38.867891+00:00,3.015000,0.063080,
2025-10-15T08:10:38.872891+00:00,3.020000,0.027740,
2025-10-15T08:10:38.877891+00:00,3.025000,0.028120,
2025-10-15T08:10:38.882891+00:00,3.030000,0.078280,
2025-10-15T08:10:38.887891+00:00,3.035000,0.077140,
2025-10-15T08:10:38.892891+00:00,3.040000,0.068400,
2025-10-15T08:10:38.897891+00:00,3.045000,0.112100,
2025-10-15T08:10:38.902891+00:00,3.050000,0.124260,
2025-10-15T08:10:38.907891+00:00,3.055000,0.103360,
2025-10-15T08:10:38.912891+00:00,3.060000,0.147440,
2025-10-15T08:10:38.917891+00:00,3.065000,0.191140,
2025-10-15T08:10:38.922891+00:00,3.070000,0.160360,
2025-10-15T08:10:38.927891+00:00,3.075000,0.150480,
2025-10-15T08:10:38.932891+00:00,3.080000,0.180120,
2025-10-15T08:10:38.937891+00:00,3.085000,0.151240,
2025-10-15T08:10:38.942891+00:00,3.090000,0.117800,
2025-10-15T08:10:38.947891+00:00,3.095000,0.154660,
2025-10-15T08:10:38.952891+00:00,3.100000,0.169100,
2025-10-15T08:10:38.957891+00:00,3.105000,0.139840,
2025-10-15T08:10:38.962891+00:00,3.110000,0.155800,
2025-10-15T08:10:38.967891+00:00,3.115000,0.165680,
2025-10-15T08:10:38.972891+00:00,3.120000,0.115900,
2025-10-15T08:10:38.977891+00:00,3.125000,0.109440,
2025-10-15T08:10:38.982891+00:00,3.130000,0.147820,
2025-10-15T08:10:38.987891+00:00,3.135000,0.126540,
2025-10-15T08:10:38.992891+00:00,3.140000,0.102220,
2025-10-15T08:10:38.997891+00:00,3.145000,0.143640,
2025-10-15T08:10:39.002891+00:00,3.150000,0.147440,
2025-10-15T08:10:39.007891+00:00,3.155000,0.109820,
2025-10-15T08:10:39.012891+00:00,3.160000,0.137560,
2025-10-15T08:10:39.017891+00:00,3.165000,0.169480,
2025-10-15T08:10:39.022891+00:00,3.170000,0.122360,
2025-10-15T08:10:39.027891+00:00,3.175000,0.097280,
2025-10-15T08:10:39.032891+00:00,3.180000,0.106020,
2025-10-15T08:10:39.037891+00:00,3.185000,0.054340,
2025-10-15T08:10:39.042891+00:00,3.190000,0.009500,
2025-10-15T08:10:39.047891+00:00,3.195000,0.038380,
2025-10-15T08:10:39.052891+00:00,3.200000,0.029640,
2025-10-15T08:10:39.057891+00:00,3.205000,-0.025080,
2025-10-15T08:10:39.062891+00:00,3.210000,-0.004940,
2025-10-15T08:10:39.067891+00:00,3.215000,0.035340,
2025-10-15T08:10:39.072891+00:00,3.220000,0.017100,
2025-10-15T08:10:39.077891+00:00,3.225000,0.027360,
2025-10-15T08:10:39.082891+00:00,3.230000,0.077520,
2025-10-15T08:10:39.087891+00:00,3.235000,0.061940,
2025-10-15T08:10:39.092891+00:00,3.240000,0.041420,
2025-10-15T08:10:39.097891+00:00,3.245000,0.086260,
2025-10-15T08:10:39.102891+00:00,3.250000,0.082080,
2025-10-15T08:10:39.107891+00:00,3.255000,0.009880,
2025-10-15T08:10:39.112891+00:00,3.260000,-0.007220,
2025-10-15T08:10:39.117891+00:00,3.265000,-0.006080,
2025-10-15T08:10:39.122891+00:00,3.270000,-0.049020,
2025-10-15T08:10:39.127891+00:00,3.275000,-0.036480,
2025-10-15T08:10:39.132891+00:00,3.280000,0.020900,
2025-10-15T08:10:39.137891+00:00,3.285000,0.008740,
2025-10-15T08:10:39.142891+00:00,3.290000,0.000000,
2025-10-15T08:10:39.147891+00:00,3.295000,0.057380,
2025-10-15T08:10:39.152891+00:00,3.300000,0.056620,
2025-10-15T08:10:39.157891+00:00,3.305000,-0.003800,
2025-10-15T08:10:39.162891+00:00,3.310000,0.011020,
2025-10-15T08:10:39.167891+00:00,3.315000,0.035720,
2025-10-15T08:10:39.172891+00:00,3.320000,-0.006840,
2025-10-15T08:10:39.177891+00:00,3.325000,-0.010260,
2025-10-15T08:10:39.182891+00:00,3.330000,0.024700,
2025-10-15T08:10:39.187891+00:00,3.335000,-0.019760,
2025-10-15T08:10:39.192891+00:00,3.340000,-0.066120,
2025-10-15T08:10:39.197891+00:00,3.345000,-0.025460,
2025-10-15T08:10:39.202891+00:00,3.350000,-0.005700,
2025-10-15T08:10:39.207891+00:00,3.355000,-0.026980,
2025-10-15T08:10:39.212891+00:00,3.360000,0.014820,
2025-10-15T08:10:39.217891+00:00,3.365000,0.046360,
2025-10-15T08:10:39.222891+00:00,3.370000,-0.003040,
2025-10-15T08:10:39.227891+00:00,3.375000,-0.003800,
2025-10-15T08:10:39.232891+00:00,3.380000,0.057380,
2025-10-15T08:10:39.237891+00:00,3.385000,0.041040,
2025-10-15T08:10:39.242891+00:00,3.390000,0.010640,
2025-10-15T08:10:39.247891+00:00,3.395000,0.071060,
2025-10-15T08:10:39.252891+00:00,3.400000,0.101460,
2025-10-15T08:10:39.257891+00:00,3.405000,0.069540,
2025-10-15T08:10:39.262891+00:00,3.410000,0.107920,
2025-10-15T08:10:39.267891+00:00,3.415000,0.167200,
2025-10-15T08:10:39.272891+00:00,3.420000,0.149720,
2025-10-15T08:10:39.277891+00:00,3.425000,0.167200,
2025-10-15T08:10:39.282891+00:00,3.430000,0.243580,
2025-10-15T08:10:39.287891+00:00,3.435000,0.250040,
2025-10-15T08:10:39.292891+00:00,3.440000,0.232180,
2025-10-15T08:10:39.297891+00:00,3.445000,0.260300,
2025-10-15T08:10:39.302891+00:00,3.450000,0.252700,
2025-10-15T08:10:39.307891+00:00,3.455000,0.211280,
2025-10-15T08:10:39.312891+00:00,3.460000,0.185820,
2025-10-15T08:10:39.317891+00:00,3.465000,0.122360,
2025-10-15T08:10:39.322891+00:00,3.470000,0.083600,
2025-10-15T08:10:39.327891+00:00,3.475000,0.180120,
2025-10-15T08:10:39.332891+00:00,3.480000,0.253080,
2025-10-15T08:10:39.337891+00:00,3.485000,0.155420,
2025-10-15T08:10:39.342891+00:00,3.490000,0.055100,
2025-10-15T08:10:39.347891+00:00,3.495000,0.056620,
2025-10-15T08:10:39.352891+00:00,3.500000,0.036860,
2025-10-15T08:10:39.357891+00:00,3.505000,-0.011780,
2025-10-15T08:10:39.362891+00:00,3.510000,0.009500,
2025-10-15T08:10:39.367891+00:00,3.515000,0.037620,
2025-10-15T08:10:39.372891+00:00,3.520000,0.011020,
2025-10-15T08:10:39.377891+00:00,3.525000,0.025460,
2025-10-15T08:10:39.382891+00:00,3.530000,0.082460,
2025-10-15T08:10:39.387891+00:00,3.535000,0.075240,
2025-10-15T08:10:39.392891+00:00,3.540000,0.045600,
2025-10-15T08:10:39.397891+00:00,3.545000,0.065740,
2025-10-15T08:10:39.402891+00:00,3.550000,0.055480,
2025-10-15T08:10:39.407891+00:00,3.555000,0.006460,
2025-10-15T08:10:39.412891+00:00,3.560000,0.030400,
2025-10-15T08:10:39.417891+00:00,3.565000,0.077520,
2025-10-15T08:10:39.422891+00:00,3.570000,0.058140,
2025-10-15T08:10:39.427891+00:00,3.575000,0.081700,
2025-10-15T08:10:39.432891+00:00,3.580000,0.201400,
2025-10-15T08:10:39.437891+00:00,3.585000,0.296780,
2025-10-15T08:10:39.442891+00:00,3.590000,0.381900,
2025-10-15T08:10:39.447891+00:00,3.595000,0.531240,
2025-10-15T08:10:39.452891+00:00,3.600000,0.632320,
2025-10-15T08:10:39.457891+00:00,3.605000,0.623960,
2025-10-15T08:10:39.462891+00:00,3.610000,0.610280,
2025-10-15T08:10:39.467891+00:00,3.615000,0.554420,
2025-10-15T08:10:39.472891+00:00,3.620000,0.461320,
2025-10-15T08:10:39.477891+00:00,3.625000,0.495140,
2025-10-15T08:10:39.482891+00:00,3.630000,0.385320,
2025-10-15T08:10:39.487891+00:00,3.635000,0.406220,
2025-10-15T08:10:39.492891+00:00,3.640000,1.451600,
2025-10-15T08:10:39.497891+00:00,3.645000,2.232120,
2025-10-15T08:10:39.502891+00:00,3.650000,1.426900,
2025-10-15T08:10:39.507891+00:00,3.655000,2.480640,
2025-10-15T08:10:39.512891+00:00,3.660000,10.324600,
2025-10-15T08:10:39.517891+00:00,3.665000,23.944180,
2025-10-15T08:10:39.522891+00:00,3.670000,35.918360,
2025-10-15T08:10:39.527891+00:00,3.675000,40.198680,
2025-10-15T08:10:39.532891+00:00,3.680000,38.211280,
2025-10-15T08:10:39.537891+00:00,3.685000,35.841220,
2025-10-15T08:10:39.542891+00:00,3.690000,35.740900,
2025-10-15T08:10:39.547891+00:00,3.695000,35.901260,
2025-10-15T08:10:39.552891+00:00,3.700000,35.183440,
2025-10-15T08:10:39.557891+00:00,3.705000,34.497920,
2025-10-15T08:10:39.562891+00:00,3.710000,34.033180,
2025-10-15T08:10:39.567891+00:00,3.715000,33.545260,
2025-10-15T08:10:39.572891+00:00,3.720000,32.928520,
2025-10-15T08:10:39.577891+00:00,3.725000,32.355860,
2025-10-15T08:10:39.582891+00:00,3.730000,32.473280,
2025-10-15T08:10:39.587891+00:00,3.735000,31.699980,
2025-10-15T08:10:39.592891+00:00,3.740000,28.870120,
2025-10-15T08:10:39.597891+00:00,3.745000,29.149800,
2025-10-15T08:10:39.602891+00:00,3.750000,34.477020,
2025-10-15T08:10:39.607891+00:00,3.755000,33.282680,
2025-10-15T08:10:39.612891+00:00,3.760000,12.945460,
2025-10-15T08:10:39.617891+00:00,3.765000,-21.150800,
2025-10-15T08:10:39.622891+00:00,3.770000,-48.180580,
2025-10-15T08:10:39.627891+00:00,3.775000,-49.807360,
2025-10-15T08:10:39.632891+00:00,3.780000,-43.890000,
2025-10-15T08:10:39.637891+00:00,3.785000,-39.936100,
2025-10-15T08:10:39.642891+00:00,3.790000,-41.248240,
2025-10-15T08:10:39.647891+00:00,3.795000,-41.903360,
2025-10-15T08:10:39.652891+00:00,3.800000,-40.643280,
2025-10-15T08:10:39.657891+00:00,3.805000,-39.818300,
2025-10-15T08:10:39.662891+00:00,3.810000,-39.331140,
2025-10-15T08:10:39.667891+00:00,3.815000,-38.722000,
2025-10-15T08:10:39.672891+00:00,3.820000,-38.155420,
2025-10-15T08:10:39.677891+00:00,3.825000,-37.422020,
2025-10-15T08:10:39.682891+00:00,3.830000,-36.590200,
2025-10-15T08:10:39.687891+00:00,3.835000,-36.257700,
2025-10-15T08:10:39.692891+00:00,3.840000,-36.217420,
2025-10-15T08:10:39.697891+00:00,3.845000,-34.777600,
2025-10-15T08:10:39.702891+00:00,3.850000,-30.365040,
2025-10-15T08:10:39.707891+00:00,3.855000,-23.489320,
2025-10-15T08:10:39.712891+00:00,3.860000,-16.460080,
2025-10-15T08:10:39.717891+00:00,3.865000,-11.160980,
2025-10-15T08:10:39.722891+00:00,3.870000,-7.620520,
2025-10-15T08:10:39.727891+00:00,3.875000,-4.871600,
2025-10-15T08:10:39.732891+00:00,3.880000,-2.539160,
2025-10-15T08:10:39.737891+00:00,3.885000,-0.796480,
2025-10-15T08:10:39.742891+00:00,3.890000,0.443840,
2025-10-15T08:10:39.747891+00:00,3.895000,1.417400,
2025-10-15T08:10:39.752891+00:00,3.900000,2.193360,
2025-10-15T08:10:39.757891+00:00,3.905000,2.805160,
2025-10-15T08:10:39.762891+00:00,3.910000,3.292320,
2025-10-15T08:10:39.767891+00:00,3.915000,3.651420,
2025-10-15T08:10:39.772891+00:00,3.920000,3.889680,
2025-10-15T08:10:39.777891+00:00,3.925000,4.039780,
2025-10-15T08:10:39.782891+00:00,3.930000,4.116540,
2025-10-15T08:10:39.787891+00:00,3.935000,4.150360,
2025-10-15T08:10:39.792891+00:00,3.940000,4.206600,
2025-10-15T08:10:39.797891+00:00,3.945000,4.308820,
2025-10-15T08:10:39.802891+00:00,3.950000,4.434600,
2025-10-15T08:10:39.807891+00:00,3.955000,4.581280,
2025-10-15T08:10:39.812891+00:00,3.960000,4.729860,
2025-10-15T08:10:39.817891+00:00,3.965000,4.835880,
2025-10-15T08:10:39.822891+00:00,3.970000,4.956720,
2025-10-15T08:10:39.827891+00:00,3.975000,5.046400,
2025-10-15T08:10:39.832891+00:00,3.980000,4.842340,
2025-10-15T08:10:39.837891+00:00,3.985000,5.055900,
2025-10-15T08:10:39.842891+00:00,3.990000,6.307620,
2025-10-15T08:10:39.847891+00:00,3.995000,6.340300,
2025-10-15T08:10:39.852891+00:00,4.000000,3.960360,
2025-10-15T08:10:39.857891+00:00,4.005000,4.157580,
2025-10-15T08:10:39.862891+00:00,4.010000,13.019560,
2025-10-15T08:10:39.867891+00:00,4.015000,28.697980,
2025-10-15T08:10:39.872891+00:00,4.020000,41.771120,
2025-10-15T08:10:39.877891+00:00,4.025000,45.567700,
2025-10-15T08:10:39.882891+00:00,4.030000,42.843480,
2025-10-15T08:10:39.887891+00:00,4.035000,40.475320,
2025-10-15T08:10:39.892891+00:00,4.040000,40.570320,
2025-10-15T08:10:39.897891+00:00,4.045000,40.612500,
2025-10-15T08:10:39.902891+00:00,4.050000,39.749140,
2025-10-15T08:10:39.907891+00:00,4.055000,39.016880,
2025-10-15T08:10:39.912891+00:00,4.060000,38.488680,
2025-10-15T08:10:39.917891+00:00,4.065000,37.896640,
2025-10-15T08:10:39.922891+00:00,4.070000,37.299280,
2025-10-15T08:10:39.927891+00:00,4.075000,36.723580,
2025-10-15T08:10:39.932891+00:00,4.080000,36.157000,
2025-10-15T08:10:39.937891+00:00,4.085000,35.597640,
2025-10-15T08:10:39.942891+00:00,4.090000,35.045120,
2025-10-15T08:10:39.947891+00:00,4.095000,34.502480,
2025-10-15T08:10:39.952891+00:00,4.100000,33.969720,
2025-10-15T08:10:39.957891+00:00,4.105000,33.445700,
2025-10-15T08:10:39.962891+00:00,4.110000,32.926240,
2025-10-15T08:10:39.967891+00:00,4.115000,32.415900,
2025-10-15T08:10:39.972891+00:00,4.120000,31.911640,
2025-10-15T08:10:39.977891+00:00,4.125000,31.439300,
2025-10-15T08:10:39.982891+00:00,4.130000,30.948720,
2025-10-15T08:10:39.987891+00:00,4.135000,30.299680,
2025-10-15T08:10:39.992891+00:00,4.140000,30.157560,
2025-10-15T08:10:39.997891+00:00,4.145000,30.229760,
2025-10-15T08:10:40.002891+00:00,4.150000,28.013980,
2025-10-15T08:10:40.007891+00:00,4.155000,25.922080,
2025-10-15T08:10:40.012891+00:00,4.160000,29.643420,
2025-10-15T08:10:40.017891+00:00,4.165000,33.552480,
2025-10-15T08:10:40.022891+00:00,4.170000,22.510820,
2025-10-15T08:10:40.027891+00:00,4.175000,-7.652060,
2025-10-15T08:10:40.032891+00:00,4.180000,-40.626940,
2025-10-15T08:10:40.037891+00:00,4.185000,-49.807360,
2025-10-15T08:10:40.042891+00:00,4.190000,-47.444900,
2025-10-15T08:10:40.047891+00:00,4.195000,-41.149440,
2025-10-15T08:10:40.052891+00:00,4.200000,-40.728020,
2025-10-15T08:10:40.057891+00:00,4.205000,-42.358600,
2025-10-15T08:10:40.062891+00:00,4.210000,-41.610380,
2025-10-15T08:10:40.067891+00:00,4.215000,-40.420220,
2025-10-15T08:10:40.072891+00:00,4.220000,-39.922040,
2025-10-15T08:10:40.077891+00:00,4.225000,-39.352040,
2025-10-15T08:10:40.082891+00:00,4.230000,-38.707560,
2025-10-15T08:10:40.087891+00:00,4.235000,-38.104880,
2025-10-15T08:10:40.092891+00:00,4.240000,-37.513980,
2025-10-15T08:10:40.097891+00:00,4.245000,-36.928780,
2025-10-15T08:10:40.102891+00:00,4.250000,-36.352700,
2025-10-15T08:10:40.107891+00:00,4.255000,-35.783460,
2025-10-15T08:10:40.112891+00:00,4.260000,-35.223720,
2025-10-15T08:10:40.117891+00:00,4.265000,-34.671960,
2025-10-15T08:10:40.122891+00:00,4.270000,-34.132360,
2025-10-15T08:10:40.127891+00:00,4.275000,-33.592380,
2025-10-15T08:10:40.132891+00:00,4.280000,-33.055060,
2025-10-15T08:10:40.137891+00:00,4.285000,-32.583860,
2025-10-15T08:10:40.142891+00:00,4.290000,-32.083020,
2025-10-15T08:10:40.147891+00:00,4.295000,-31.351520,
2025-10-15T08:10:40.152891+00:00,4.300000,-30.730980,
2025-10-15T08:10:40.157891+00:00,4.305000,-30.696400,
2025-10-15T08:10:40.162891+00:00,4.310000,-30.473340,
2025-10-15T08:10:40.167891+00:00,4.315000,-28.127220,
2025-10-15T08:10:40.172891+00:00,4.320000,-22.600120,
2025-10-15T08:10:40.177891+00:00,4.325000,-15.198480,
2025-10-15T08:10:40.182891+00:00,4.330000,-8.493760,
2025-10-15T08:10:40.187891+00:00,4.335000,-3.880940,
2025-10-15T08:10:40.192891+00:00,4.340000,-0.822700,
2025-10-15T08:10:40.197891+00:00,4.345000,1.665540,
2025-10-15T08:10:40.202891+00:00,4.350000,3.757440,
2025-10-15T08:10:40.207891+00:00,4.355000,5.329120,
2025-10-15T08:10:40.212891+00:00,4.360000,6.488880,
2025-10-15T08:10:40.217891+00:00,4.365000,7.344260,
2025-10-15T08:10:40.222891+00:00,4.370000,7.968980,
2025-10-15T08:10:40.227891+00:00,4.375000,8.434860,
2025-10-15T08:10:40.232891+00:00,4.380000,8.764700,
2025-10-15T08:10:40.237891+00:00,4.385000,8.964580,
2025-10-15T08:10:40.242891+00:00,4.390000,9.070600,
2025-10-15T08:10:40.247891+00:00,4.395000,9.112780,
2025-10-15T08:10:40.252891+00:00,4.400000,9.119240,
2025-10-15T08:10:40.257891+00:00,4.405000,9.121520,
2025-10-15T08:10:40.262891+00:00,4.410000,9.113160,
2025-10-15T08:10:40.267891+00:00,4.415000,9.056920,
2025-10-15T08:10:40.272891+00:00,4.420000,8.949000,
2025-10-15T08:10:40.277891+00:00,4.425000,8.825500,
2025-10-15T08:10:40.282891+00:00,4.430000,8.708840,
2025-10-15T08:10:40.287891+00:00,4.435000,8.589140,
2025-10-15T08:10:40.292891+00:00,4.440000,8.464500,
2025-10-15T08:10:40.297891+00:00,4.445000,8.340240,
2025-10-15T08:10:40.302891+00:00,4.450000,8.230800,
2025-10-15T08:10:40.307891+00:00,4.455000,8.151000,
2025-10-15T08:10:40.312891+00:00,4.460000,8.076900,
2025-10-15T08:10:40.317891+00:00,4.465000,7.967460,
2025-10-15T08:10:40.322891+00:00,4.470000,7.826480,
2025-10-15T08:10:40.327891+00:00,4.475000,7.682460,
2025-10-15T08:10:40.332891+00:00,4.480000,7.542620,
2025-10-15T08:10:40.337891+00:00,4.485000,7.396320,
2025-10-15T08:10:40.342891+00:00,4.490000,7.243560,
2025-10-15T08:10:40.347891+00:00,4.495000,7.079020,
2025-10-15T08:10:40.352891+00:00,4.500000,6.901180,
2025-10-15T08:10:40.357891+00:00,4.505000,6.739680,
2025-10-15T08:10:40.362891+00:00,4.510000,6.621120,
2025-10-15T08:10:40.367891+00:00,4.515000,6.535240,
2025-10-15T08:10:40.372891+00:00,4.520000,6.469120,
2025-10-15T08:10:40.377891+00:00,4.525000,6.423140,
2025-10-15T08:10:40.382891+00:00,4.530000,6.384380,
2025-10-15T08:10:40.387891+00:00,4.535000,6.329280,
2025-10-15T08:10:40.392891+00:00,4.540000,6.254040,
2025-10-15T08:10:40.397891+00:00,4.545000,6.174620,
2025-10-15T08:10:40.402891+00:00,4.550000,6.103560,
2025-10-15T08:10:40.407891+00:00,4.555000,6.052640,
2025-10-15T08:10:40.412891+00:00,4.560000,6.016160,
2025-10-15T08:10:40.417891+00:00,4.565000,5.959540,
2025-10-15T08:10:40.422891+00:00,4.570000,5.862260,
2025-10-15T08:10:40.427891+00:00,4.575000,5.743700,
2025-10-15T08:10:40.432891+00:00,4.580000,5.624760,
2025-10-15T08:10:40.437891+00:00,4.585000,5.520260,
2025-10-15T08:10:40.442891+00:00,4.590000,5.444640,
2025-10-15T08:10:40.447891+00:00,4.595000,5.391440,
2025-10-15T08:10:40.452891+00:00,4.600000,5.333300,
2025-10-15T08:10:40.457891+00:00,4.605000,5.269840,
2025-10-15T08:10:40.462891+00:00,4.610000,5.217780,
2025-10-15T08:10:40.467891+00:00,4.615000,5.165340,
2025-10-15T08:10:40.472891+00:00,4.620000,5.116320,
2025-10-15T08:10:40.477891+00:00,4.625000,5.080980,
2025-10-15T08:10:40.482891+00:00,4.630000,5.049440,
2025-10-15T08:10:40.487891+00:00,4.635000,5.001180,
2025-10-15T08:10:40.492891+00:00,4.640000,4.940000,
2025-10-15T08:10:40.497891+00:00,4.645000,4.873120,
2025-10-15T08:10:40.502891+00:00,4.650000,4.798640,
2025-10-15T08:10:40.507891+00:00,4.655000,4.724540,
2025-10-15T08:10:40.512891+00:00,4.660000,4.654620,
2025-10-15T08:10:40.517891+00:00,4.665000,4.566080,
2025-10-15T08:10:40.522891+00:00,4.670000,4.458920,
2025-10-15T08:10:40.527891+00:00,4.675000,4.362020,
2025-10-15T08:10:40.532891+00:00,4.680000,4.266640,
2025-10-15T08:10:40.537891+00:00,4.685000,4.167080,
2025-10-15T08:10:40.542891+00:00,4.690000,4.081200,
2025-10-15T08:10:40.547891+00:00,4.695000,4.021920,
2025-10-15T08:10:40.552891+00:00,4.700000,3.981640,
2025-10-15T08:10:40.557891+00:00,4.705000,3.953140,
2025-10-15T08:10:40.562891+00:00,4.710000,3.932620,
2025-10-15T08:10:40.567891+00:00,4.715000,3.899560,
2025-10-15T08:10:40.572891+00:00,4.720000,3.847500,
2025-10-15T08:10:40.577891+00:00,4.725000,3.792020,
2025-10-15T08:10:40.582891+00:00,4.730000,3.733120,
2025-10-15T08:10:40.587891+00:00,4.735000,3.669660,
2025-10-15T08:10:40.592891+00:00,4.740000,3.613420,
2025-10-15T08:10:40.597891+00:00,4.745000,3.564780,
2025-10-15T08:10:40.602891+00:00,4.750000,3.503980,
2025-10-15T08:10:40.607891+00:00,4.755000,3.435200,
2025-10-15T08:10:40.612891+00:00,4.760000,3.374400,
2025-10-15T08:10:40.617891+00:00,4.765000,3.319680,
2025-10-15T08:10:40.622891+00:00,4.770000,3.270660,
2025-10-15T08:10:40.627891+00:00,4.775000,3.232280,
2025-10-15T08:10:40.632891+00:00,4.780000,3.193520,
2025-10-15T08:10:40.637891+00:00,4.785000,3.139560,
2025-10-15T08:10:40.642891+00:00,4.790000,3.084840,
2025-10-15T08:10:40.647891+00:00,4.795000,3.037340,
2025-10-15T08:10:40.652891+00:00,4.800000,2.982240,
2025-10-15T08:10:40.657891+00:00,4.805000,2.927520,
2025-10-15T08:10:40.662891+00:00,4.810000,2.881920,
2025-10-15T08:10:40.667891+00:00,4.815000,2.834800,
2025-10-15T08:10:40.672891+00:00,4.820000,2.779320,
2025-10-15T08:10:40.677891+00:00,4.825000,2.728780,
2025-10-15T08:10:40.682891+00:00,4.830000,2.680900,
2025-10-15T08:10:40.687891+00:00,4.835000,2.625040,
2025-10-15T08:10:40.692891+00:00,4.840000,2.572220,
2025-10-15T08:10:40.697891+00:00,4.845000,2.526620,
2025-10-15T08:10:40.702891+00:00,4.850000,2.471140,
2025-10-15T08:10:40.707891+00:00,4.855000,2.417180,
2025-10-15T08:10:40.712891+00:00,4.860000,2.377280,
2025-10-15T08:10:40.717891+00:00,4.865000,2.333960,
2025-10-15T08:10:40.722891+00:00,4.870000,2.280760,
2025-10-15T08:10:40.727891+00:00,4.875000,2.241240,
2025-10-15T08:10:40.732891+00:00,4.880000,2.210840,
2025-10-15T08:10:40.737891+00:00,4.885000,2.176260,
2025-10-15T08:10:40.742891+00:00,4.890000,2.144340,
2025-10-15T08:10:40.747891+00:00,4.895000,2.119640,
2025-10-15T08:10:40.752891+00:00,4.900000,2.083540,
2025-10-15T08:10:40.757891+00:00,4.905000,2.047820,
2025-10-15T08:10:40.762891+00:00,4.910000,2.023120,
2025-10-15T08:10:40.767891+00:00,4.915000,1.993100,
2025-10-15T08:10:40.772891+00:00,4.920000,1.949780,
2025-10-15T08:10:40.777891+00:00,4.925000,1.915580,
2025-10-15T08:10:40.782891+00:00,4.930000,1.890500,
2025-10-15T08:10:40.787891+00:00,4.935000,1.862000,
2025-10-15T08:10:40.792891+00:00,4.940000,1.838060,
2025-10-15T08:10:40.797891+00:00,4.945000,1.820200,
2025-10-15T08:10:40.802891+00:00,4.950000,1.793980,
2025-10-15T08:10:40.807891+00:00,4.955000,1.767760,
2025-10-15T08:10:40.812891+00:00,4.960000,1.749900,
2025-10-15T08:10:40.817891+00:00,4.965000,1.725580,
2025-10-15T08:10:40.822891+00:00,4.970000,1.688340,
2025-10-15T08:10:40.827891+00:00,4.975000,1.662500,
2025-10-15T08:10:40.832891+00:00,4.980000,1.644260,
2025-10-15T08:10:40.837891+00:00,4.985000,1.620320,
2025-10-15T08:10:40.842891+00:00,4.990000,1.602080,
2025-10-15T08:10:40.847891+00:00,4.995000,1.589540,
2025-10-15T08:10:40.852891+00:00,5.000000,1.559520,
2025-10-15T08:10:40.857891+00:00,5.005000,1.523040,
2025-10-15T08:10:40.862891+00:00,5.010000,1.499100,
2025-10-15T08:10:40.867891+00:00,5.015000,1.475160,
2025-10-15T08:10:40.872891+00:00,5.020000,1.443240,
2025-10-15T08:10:40.877891+00:00,5.025000,1.420820,
2025-10-15T08:10:40.882891+00:00,5.030000,1.401060,
2025-10-15T08:10:40.887891+00:00,5.035000,1.375220,
2025-10-15T08:10:40.892891+00:00,5.040000,1.358120,
2025-10-15T08:10:40.897891+00:00,5.045000,1.350900,
2025-10-15T08:10:40.902891+00:00,5.050000,1.331900,
2025-10-15T08:10:40.907891+00:00,5.055000,1.306440,
2025-10-15T08:10:40.912891+00:00,5.060000,1.293900,
2025-10-15T08:10:40.917891+00:00,5.065000,1.276800,
2025-10-15T08:10:40.922891+00:00,5.070000,1.247920,
2025-10-15T08:10:40.927891+00:00,5.075000,1.236140,
2025-10-15T08:10:40.932891+00:00,5.080000,1.235380,
2025-10-15T08:10:40.937891+00:00,5.085000,1.206500,
2025-10-15T08:10:40.942891+00:00,5.090000,1.162800,
2025-10-15T08:10:40.947891+00:00,5.095000,1.136580,
2025-10-15T08:10:40.952891+00:00,5.100000,1.116440,
2025-10-15T08:10:40.957891+00:00,5.105000,1.093260,
2025-10-15T08:10:40.962891+00:00,5.110000,1.079580,
2025-10-15T08:10:40.967891+00:00,5.115000,1.060580,
2025-10-15T08:10:40.972891+00:00,5.120000,1.030180,
2025-10-15T08:10:40.977891+00:00,5.125000,1.013460,
2025-10-15T08:10:40.982891+00:00,5.130000,1.001300,
2025-10-15T08:10:40.987891+00:00,5.135000,0.972420,
2025-10-15T08:10:40.992891+00:00,5.140000,0.949620,
2025-10-15T08:10:40.997891+00:00,5.145000,0.944300,
2025-10-15T08:10:41.002891+00:00,5.150000,0.921880,
2025-10-15T08:10:41.007891+00:00,5.155000,0.893380,
2025-10-15T08:10:41.012891+00:00,5.160000,0.883500,
2025-10-15T08:10:41.017891+00:00,5.165000,0.872480,
2025-10-15T08:10:41.022891+00:00,5.170000,0.849300,
2025-10-15T08:10:41.027891+00:00,5.175000,0.840560,
2025-10-15T08:10:41.032891+00:00,5.180000,0.829920,
2025-10-15T08:10:41.037891+00:00,5.185000,0.795340,
2025-10-15T08:10:41.042891+00:00,5.190000,0.769880,
2025-10-15T08:10:41.047891+00:00,5.195000,0.765700,
2025-10-15T08:10:41.052891+00:00,5.200000,0.745180,
2025-10-15T08:10:41.057891+00:00,5.205000,0.715160,
2025-10-15T08:10:41.062891+00:00,5.210000,0.701480,
2025-10-15T08:10:41.067891+00:00,5.215000,0.678680,
2025-10-15T08:10:41.072891+00:00,5.220000,0.643340,
2025-10-15T08:10:41.077891+00:00,5.225000,0.635740,
2025-10-15T08:10:41.082891+00:00,5.230000,0.644100,
2025-10-15T08:10:41.087891+00:00,5.235000,0.636880,
2025-10-15T08:10:41.092891+00:00,5.240000,0.629660,
2025-10-15T08:10:41.097891+00:00,5.245000,0.630420,
2025-10-15T08:10:41.102891+00:00,5.250000,0.614080,
2025-10-15T08:10:41.107891+00:00,5.255000,0.599640,
2025-10-15T08:10:41.112891+00:00,5.260000,0.611800,
2025-10-15T08:10:41.117891+00:00,5.265000,0.610280,
2025-10-15T08:10:41.122891+00:00,5.270000,0.585580,
2025-10-15T08:10:41.127891+00:00,5.275000,0.571900,
2025-10-15T08:10:41.132891+00:00,5.280000,0.562400,
2025-10-15T08:10:41.137891+00:00,5.285000,0.537700,
2025-10-15T08:10:41.142891+00:00,5.290000,0.524780,
2025-10-15T08:10:41.147891+00:00,5.295000,0.527060,
2025-10-15T08:10:41.152891+00:00,5.300000,0.505020,
2025-10-15T08:10:41.157891+00:00,5.305000,0.479180,
2025-10-15T08:10:41.162891+00:00,5.310000,0.480700,
2025-10-15T08:10:41.167891+00:00,5.315000,0.481840,
2025-10-15T08:10:41.172891+00:00,5.320000,0.463980,
2025-10-15T08:10:41.177891+00:00,5.325000,0.457900,
2025-10-15T08:10:41.182891+00:00,5.330000,0.450300,
2025-10-15T08:10:41.187891+00:00,5.335000,0.423320,
2025-10-15T08:10:41.192891+00:00,5.340000,0.409640,
2025-10-15T08:10:41.197891+00:00,5.345000,0.413820,
2025-10-15T08:10:41.202891+00:00,5.350000,0.403560,
2025-10-15T08:10:41.207891+00:00,5.355000,0.396720,
2025-10-15T08:10:41.212891+00:00,5.360000,0.411540,
2025-10-15T08:10:41.217891+00:00,5.365000,0.411540,
2025-10-15T08:10:41.222891+00:00,5.370000,0.384940,
2025-10-15T08:10:41.227891+00:00,5.375000,0.369360,
2025-10-15T08:10:41.232891+00:00,5.380000,0.359100,
2025-10-15T08:10:41.237891+00:00,5.385000,0.334780,
2025-10-15T08:10:41.242891+00:00,5.390000,0.321480,
2025-10-15T08:10:41.247891+00:00,5.395000,0.317680,
2025-10-15T08:10:41.252891+00:00,5.400000,0.292600,
2025-10-15T08:10:41.257891+00:00,5.405000,0.265620,
2025-10-15T08:10:41.262891+00:00,5.410000,0.262960,
2025-10-15T08:10:41.267891+00:00,5.415000,0.257640,
2025-10-15T08:10:41.272891+00:00,5.420000,0.237500,
2025-10-15T08:10:41.277891+00:00,5.425000,0.240540,
2025-10-15T08:10:41.282891+00:00,5.430000,0.247760,
2025-10-15T08:10:41.287891+00:00,5.435000,0.238640,
2025-10-15T08:10:41.292891+00:00,5.440000,0.242060,
2025-10-15T08:10:41.297891+00:00,5.445000,0.261820,
2025-10-15T08:10:41.302891+00:00,5.450000,0.261440,
2025-10-15T08:10:41.307891+00:00,5.455000,0.256120,
2025-10-15T08:10:41.312891+00:00,5.460000,0.269420,
2025-10-15T08:10:41.317891+00:00,5.465000,0.276260,
2025-10-15T08:10:41.322891+00:00,5.470000,0.267520,
2025-10-15T08:10:41.327891+00:00,5.475000,0.271700,
2025-10-15T08:10:41.332891+00:00,5.480000,0.271320,
2025-10-15T08:10:41.337891+00:00,5.485000,0.249280,
2025-10-15T08:10:41.342891+00:00,5.490000,0.238260,
2025-10-15T08:10:41.347891+00:00,5.495000,0.251180,
2025-10-15T08:10:41.352891+00:00,5.500000,0.250420,
2025-10-15T08:10:41.357891+00:00,5.505000,0.243960,
2025-10-15T08:10:41.362891+00:00,5.510000,0.249660,
2025-10-15T08:10:41.367891+00:00,5.515000,0.242060,
2025-10-15T08:10:41.372891+00:00,5.520000,0.222680,
2025-10-15T08:10:41.377891+00:00,5.525000,0.224200,
2025-10-15T08:10:41.382891+00:00,5.530000,0.231040,
2025-10-15T08:10:41.387891+00:00,5.535000,0.215840,
2025-10-15T08:10:41.392891+00:00,5.540000,0.207100,
2025-10-15T08:10:41.397891+00:00,5.545000,0.214700,
2025-10-15T08:10:41.402891+00:00,5.550000,0.209380,
2025-10-15T08:10:41.407891+00:00,5.555000,0.201780,
2025-10-15T08:10:41.412891+00:00,5.560000,0.213940,
2025-10-15T08:10:41.417891+00:00,5.565000,0.220020,
2025-10-15T08:10:41.422891+00:00,5.570000,0.211660,
2025-10-15T08:10:41.427891+00:00,5.575000,0.220020,
2025-10-15T08:10:41.432891+00:00,5.580000,0.227240,
2025-10-15T08:10:41.437891+00:00,5.585000,0.209380,
2025-10-15T08:10:41.442891+00:00,5.590000,0.194560,
2025-10-15T08:10:41.447891+00:00,5.595000,0.193040,
2025-10-15T08:10:41.452891+00:00,5.600000,0.177840,
2025-10-15T08:10:41.457891+00:00,5.605000,0.163780,
2025-10-15T08:10:41.462891+00:00,5.610000,0.172900,
2025-10-15T08:10:41.467891+00:00,5.615000,0.175560,
2025-10-15T08:10:41.472891+00:00,5.620000,0.163400,
2025-10-15T08:10:41.477891+00:00,5.625000,0.168720,
2025-10-15T08:10:41.482891+00:00,5.630000,0.177460,
2025-10-15T08:10:41.487891+00:00,5.635000,0.163020,
2025-10-15T08:10:41.492891+00:00,5.640000,0.154660,
2025-10-15T08:10:41.497891+00:00,5.645000,0.159220,
2025-10-15T08:10:41.502891+00:00,5.650000,0.146300,
2025-10-15T08:10:41.507891+00:00,5.655000,0.130720,
2025-10-15T08:10:41.512891+00:00,5.660000,0.142120,
2025-10-15T08:10:41.517891+00:00,5.665000,0.149340,
2025-10-15T08:10:41.522891+00:00,5.670000,0.137180,
2025-10-15T08:10:41.527891+00:00,5.675000,0.138700,
2025-10-15T08:10:41.532891+00:00,5.680000,0.147440,
2025-10-15T08:10:41.537891+00:00,5.685000,0.136800,
2025-10-15T08:10:41.542891+00:00,5.690000,0.134900,
2025-10-15T08:10:41.547891+00:00,5.695000,0.143260,
2025-10-15T08:10:41.552891+00:00,5.700000,0.134900,
2025-10-15T08:10:41.557891+00:00,5.705000,0.124260,
2025-10-15T08:10:41.562891+00:00,5.710000,0.135660,
2025-10-15T08:10:41.567891+00:00,5.715000,0.134140,
2025-10-15T08:10:41.572891+00:00,5.720000,0.117420,
2025-10-15T08:10:41.577891+00:00,5.725000,0.119320,
2025-10-15T08:10:41.582891+00:00,5.730000,0.133000,
2025-10-15T08:10:41.587891+00:00,5.735000,0.128440,
2025-10-15T08:10:41.592891+00:00,5.740000,0.131100,
2025-10-15T08:10:41.597891+00:00,5.745000,0.146680,
2025-10-15T08:10:41.602891+00:00,5.750000,0.140600,
2025-10-15T08:10:41.607891+00:00,5.755000,0.127300,
2025-10-15T08:10:41.612891+00:00,5.760000,0.128820,
2025-10-15T08:10:41.617891+00:00,5.765000,0.130340,
2025-10-15T08:10:41.622891+00:00,5.770000,0.119700,
2025-10-15T08:10:41.627891+00:00,5.775000,0.120460,
2025-10-15T08:10:41.632891+00:00,5.780000,0.126540,
2025-10-15T08:10:41.637891+00:00,5.785000,0.130720,
2025-10-15T08:10:41.642891+00:00,5.790000,0.144780,
2025-10-15T08:10:41.647891+00:00,5.795000,0.141740,
2025-10-15T08:10:41.652891+00:00,5.800000,0.102980,
2025-10-15T08:10:41.657891+00:00,5.805000,0.080180,
2025-10-15T08:10:41.662891+00:00,5.810000,0.096140,
2025-10-15T08:10:41.667891+00:00,5.815000,0.106020,
2025-10-15T08:10:41.672891+00:00,5.820000,0.093480,
2025-10-15T08:10:41.677891+00:00,5.825000,0.093480,
2025-10-15T08:10:41.682891+00:00,5.830000,0.097660,
2025-10-15T08:10:41.687891+00:00,5.835000,0.088160,
2025-10-15T08:10:41.692891+00:00,5.840000,0.082840,
2025-10-15T08:10:41.697891+00:00,5.845000,0.090820,
2025-10-15T08:10:41.702891+00:00,5.850000,0.087780,
2025-10-15T08:10:41.707891+00:00,5.855000,0.076380,
2025-10-15T08:10:41.712891+00:00,5.860000,0.077520,
2025-10-15T08:10:41.717891+00:00,5.865000,0.074860,
2025-10-15T08:10:41.722891+00:00,5.870000,0.059660,
2025-10-15T08:10:41.727891+00:00,5.875000,0.058520,
2025-10-15T08:10:41.732891+00:00,5.880000,0.064220,
2025-10-15T08:10:41.737891+00:00,5.885000,0.040660,
2025-10-15T08:10:41.742891+00:00,5.890000,0.016340,
2025-10-15T08:10:41.747891+00:00,5.895000,0.023940,
2025-10-15T08:10:41.752891+00:00,5.900000,0.036480,
2025-10-15T08:10:41.757891+00:00,5.905000,0.034200,
2025-10-15T08:10:41.762891+00:00,5.910000,0.035340,
2025-10-15T08:10:41.767891+00:00,5.915000,0.034580,
2025-10-15T08:10:41.772891+00:00,5.920000,0.023940,
2025-10-15T08:10:41.777891+00:00,5.925000,0.028120,
2025-10-15T08:10:41.782891+00:00,5.930000,0.038380,
2025-10-15T08:10:41.787891+00:00,5.935000,0.023940,
2025-10-15T08:10:41.792891+00:00,5.940000,0.015200,
2025-10-15T08:10:41.797891+00:00,5.945000,0.020520,
2025-10-15T08:10:41.802891+00:00,5.950000,0.008360,
2025-10-15T08:10:41.807891+00:00,5.955000,-0.006460,
2025-10-15T08:10:41.812891+00:00,5.960000,0.008740,
2025-10-15T08:10:41.817891+00:00,5.965000,0.022040,
2025-10-15T08:10:41.822891+00:00,5.970000,0.017480,
2025-10-15T08:10:41.827891+00:00,5.975000,0.025840,
2025-10-15T08:10:41.832891+00:00,5.980000,0.035720,
2025-10-15T08:10:41.837891+00:00,5.985000,0.022040,
2025-10-15T08:10:41.842891+00:00,5.990000,0.013680,
2025-10-15T08:10:41.847891+00:00,5.995000,0.023180,
2025-10-15T08:10:41.852891+00:00,6.000000,0.017480,
2025-10-15T08:10:41.857891+00:00,6.005000,0.005700,
2025-10-15T08:10:41.862891+00:00,6.010000,0.013300,
2025-10-15T08:10:41.867891+00:00,6.015000,0.017480,
2025-10-15T08:10:41.872891+00:00,6.020000,0.007600,
2025-10-15T08:10:41.877891+00:00,6.025000,0.013300,
2025-10-15T08:10:41.882891+00:00,6.030000,0.019760,
2025-10-15T08:10:41.887891+00:00,6.035000,0.000760,
2025-10-15T08:10:41.892891+00:00,6.040000,-0.007220,
2025-10-15T08:10:41.897891+00:00,6.045000,0.007980,
2025-10-15T08:10:41.902891+00:00,6.050000,0.010640,
2025-10-15T08:10:41.907891+00:00,6.055000,0.003420,
2025-10-15T08:10:41.912891+00:00,6.060000,0.012540,
2025-10-15T08:10:41.917891+00:00,6.065000,0.015580,
2025-10-15T08:10:41.922891+00:00,6.070000,0.004560,
2025-10-15T08:10:41.927891+00:00,6.075000,0.009880,
2025-10-15T08:10:41.932891+00:00,6.080000,0.020900,
2025-10-15T08:10:41.937891+00:00,6.085000,0.009500,
2025-10-15T08:10:41.942891+00:00,6.090000,0.004560,
2025-10-15T08:10:41.947891+00:00,6.095000,0.016340,
2025-10-15T08:10:41.952891+00:00,6.100000,0.007220,
2025-10-15T08:10:41.957891+00:00,6.105000,-0.008360,
2025-10-15T08:10:41.962891+00:00,6.110000,-0.002660,
2025-10-15T08:10:41.967891+00:00,6.115000,-0.002280,
2025-10-15T08:10:41.972891+00:00,6.120000,-0.018620,
2025-10-15T08:10:41.977891+00:00,6.125000,-0.015580,
2025-10-15T08:10:41.982891+00:00,6.130000,-0.004180,
2025-10-15T08:10:41.987891+00:00,6.135000,-0.008360,
2025-10-15T08:10:41.992891+00:00,6.140000,-0.009120,
2025-10-15T08:10:41.997891+00:00,6.145000,0.004180,
2025-10-15T08:10:42.002891+00:00,6.150000,-0.003420,
2025-10-15T08:10:42.007891+00:00,6.155000,-0.017860,
2025-10-15T08:10:42.012891+00:00,6.160000,-0.009120,
2025-10-15T08:10:42.017891+00:00,6.165000,-0.006840,
2025-10-15T08:10:42.022891+00:00,6.170000,-0.020900,
2025-10-15T08:10:42.027891+00:00,6.175000,-0.019000,
2025-10-15T08:10:42.032891+00:00,6.180000,-0.010260,
2025-10-15T08:10:42.037891+00:00,6.185000,-0.015960,
2025-10-15T08:10:42.042891+00:00,6.190000,-0.012160,
2025-10-15T08:10:42.047891+00:00,6.195000,0.004180,
2025-10-15T08:10:42.052891+00:00,6.200000,-0.001520,
2025-10-15T08:10:42.057891+00:00,6.205000,-0.012160,
2025-10-15T08:10:42.062891+00:00,6.210000,-0.000760,
2025-10-15T08:10:42.067891+00:00,6.215000,0.004560,
2025-10-15T08:10:42.072891+00:00,6.220000,-0.009500,
2025-10-15T08:10:42.077891+00:00,6.225000,-0.007980,
2025-10-15T08:10:42.082891+00:00,6.230000,0.000760,
2025-10-15T08:10:42.087891+00:00,6.235000,-0.009500,
2025-10-15T08:10:42.092891+00:00,6.240000,-0.011780,
2025-10-15T08:10:42.097891+00:00,6.245000,0.004180,
2025-10-15T08:10:42.102891+00:00,6.250000,0.000760,
2025-10-15T08:10:42.107891+00:00,6.255000,-0.011780,
2025-10-15T08:10:42.112891+00:00,6.260000,-0.006460,
2025-10-15T08:10:42.117891+00:00,6.265000,-0.009500,
2025-10-15T08:10:42.122891+00:00,6.270000,-0.025840,
2025-10-15T08:10:42.127891+00:00,6.275000,-0.025080,
2025-10-15T08:10:42.132891+00:00,6.280000,-0.017860,
2025-10-15T08:10:42.137891+00:00,6.285000,-0.030400,
2025-10-15T08:10:42.142891+00:00,6.290000,-0.032300,
2025-10-15T08:10:42.147891+00:00,6.295000,-0.012160,
2025-10-15T08:10:42.152891+00:00,6.300000,-0.009120,
2025-10-15T08:10:42.157891+00:00,6.305000,-0.013300,
2025-10-15T08:10:42.162891+00:00,6.310000,0.000760,
2025-10-15T08:10:42.167891+00:00,6.315000,0.008740,
2025-10-15T08:10:42.172891+00:00,6.320000,0.001900,
2025-10-15T08:10:42.177891+00:00,6.325000,0.009500,
2025-10-15T08:10:42.182891+00:00,6.330000,0.018240,
2025-10-15T08:10:42.187891+00:00,6.335000,0.003040,
2025-10-15T08:10:42.192891+00:00,6.340000,-0.007980,
2025-10-15T08:10:42.197891+00:00,6.345000,0.000760,
2025-10-15T08:10:42.202891+00:00,6.350000,0.005320,
2025-10-15T08:10:42.207891+00:00,6.355000,0.007220,
2025-10-15T08:10:42.212891+00:00,6.360000,0.001900,
2025-10-15T08:10:42.217891+00:00,6.365000,-0.023940,
2025-10-15T08:10:42.222891+00:00,6.370000,-0.036100,
2025-10-15T08:10:42.227891+00:00,6.375000,-0.006840,
2025-10-15T08:10:42.232891+00:00,6.380000,0.019760,
2025-10-15T08:10:42.237891+00:00,6.385000,0.010640,
2025-10-15T08:10:42.242891+00:00,6.390000,0.003040,
2025-10-15T08:10:42.247891+00:00,6.395000,0.012160,
2025-10-15T08:10:42.252891+00:00,6.400000,0.006840,
2025-10-15T08:10:42.257891+00:00,6.405000,-0.005700,
2025-10-15T08:10:42.262891+00:00,6.410000,-0.007600,
2025-10-15T08:10:42.267891+00:00,6.415000,-0.007980,
2025-10-15T08:10:42.272891+00:00,6.420000,-0.012920,
2025-10-15T08:10:42.277891+00:00,6.425000,-0.002280,
2025-10-15T08:10:42.282891+00:00,6.430000,0.011020,
2025-10-15T08:10:42.287891+00:00,6.435000,0.011780,
2025-10-15T08:10:42.292891+00:00,6.440000,0.015960,
2025-10-15T08:10:42.297891+00:00,6.445000,0.027740,
2025-10-15T08:10:42.302891+00:00,6.450000,0.023560,
2025-10-15T08:10:42.307891+00:00,6.455000,0.011400,
2025-10-15T08:10:42.312891+00:00,6.460000,0.011020,
2025-10-15T08:10:42.317891+00:00,6.465000,0.010260,
2025-10-15T08:10:42.322891+00:00,6.470000,0.003040,
2025-10-15T08:10:42.327891+00:00,6.475000,0.004560,
2025-10-15T08:10:42.332891+00:00,6.480000,0.011020,
2025-10-15T08:10:42.337891+00:00,6.485000,0.009500,
2025-10-15T08:10:42.342891+00:00,6.490000,0.007600,
2025-10-15T08:10:42.347891+00:00,6.495000,0.012920,
2025-10-15T08:10:42.352891+00:00,6.500000,0.002280,
2025-10-15T08:10:42.357891+00:00,6.505000,-0.011780,
2025-10-15T08:10:42.362891+00:00,6.510000,-0.009880,
2025-10-15T08:10:42.367891+00:00,6.515000,-0.005700,
2025-10-15T08:10:42.372891+00:00,6.520000,-0.010640,
2025-10-15T08:10:42.377891+00:00,6.525000,-0.008740,
2025-10-15T08:10:42.382891+00:00,6.530000,-0.003800,
2025-10-15T08:10:42.387891+00:00,6.535000,-0.005700,
2025-10-15T08:10:42.392891+00:00,6.540000,-0.003420,
2025-10-15T08:10:42.397891+00:00,6.545000,0.004180,
2025-10-15T08:10:42.402891+00:00,6.550000,-0.003040,
2025-10-15T08:10:42.407891+00:00,6.555000,-0.015200,
2025-10-15T08:10:42.412891+00:00,6.560000,-0.016720,
2025-10-15T08:10:42.417891+00:00,6.565000,-0.018620,
2025-10-15T08:10:42.422891+00:00,6.570000,-0.028880,
2025-10-15T08:10:42.427891+00:00,6.575000,-0.028880,
2025-10-15T08:10:42.432891+00:00,6.580000,-0.022040,
2025-10-15T08:10:42.437891+00:00,6.585000,-0.022800,
2025-10-15T08:10:42.442891+00:00,6.590000,-0.020140,
2025-10-15T08:10:42.447891+00:00,6.595000,-0.009880,
2025-10-15T08:10:42.452891+00:00,6.600000,-0.012540,
2025-10-15T08:10:42.457891+00:00,6.605000,-0.023940,
2025-10-15T08:10:42.462891+00:00,6.610000,-0.024700,
2025-10-15T08:10:42.467891+00:00,6.615000,-0.023560,
2025-10-15T08:10:42.472891+00:00,6.620000,-0.028880,
2025-10-15T08:10:42.477891+00:00,6.625000,-0.024320,
2025-10-15T08:10:42.482891+00:00,6.630000,-0.021660,
2025-10-15T08:10:42.487891+00:00,6.635000,-0.032300,
2025-10-15T08:10:42.492891+00:00,6.640000,-0.038380,
2025-10-15T08:10:42.497891+00:00,6.645000,-0.032300,
2025-10-15T08:10:42.502891+00:00,6.650000,-0.033060,
2025-10-15T08:10:42.507891+00:00,6.655000,-0.040660,
2025-10-15T08:10:42.512891+00:00,6.660000,-0.038380,
2025-10-15T08:10:42.517891+00:00,6.665000,-0.038380,
2025-10-15T08:10:42.522891+00:00,6.670000,-0.047500,
2025-10-15T08:10:42.527891+00:00,6.675000,-0.048260,
2025-10-15T08:10:42.532891+00:00,6.680000,-0.043320,
2025-10-15T08:10:42.537891+00:00,6.685000,-0.045600,
2025-10-15T08:10:42.542891+00:00,6.690000,-0.044840,
2025-10-15T08:10:42.547891+00:00,6.695000,-0.042560,
2025-10-15T08:10:42.552891+00:00,6.700000,-0.052440,
2025-10-15T08:10:42.557891+00:00,6.705000,-0.064600,
2025-10-15T08:10:42.562891+00:00,6.710000,-0.060040,
2025-10-15T08:10:42.567891+00:00,6.715000,-0.053580,
2025-10-15T08:10:42.572891+00:00,6.720000,-0.052820,
2025-10-15T08:10:42.577891+00:00,6.725000,-0.045980,
2025-10-15T08:10:42.582891+00:00,6.730000,-0.039140,
2025-10-15T08:10:42.587891+00:00,6.735000,-0.045600,
2025-10-15T08:10:42.592891+00:00,6.740000,-0.048640,
2025-10-15T08:10:42.597891+00:00,6.745000,-0.041800,
2025-10-15T08:10:42.602891+00:00,6.750000,-0.038760,
2025-10-15T08:10:42.607891+00:00,6.755000,-0.042180,
2025-10-15T08:10:42.612891+00:00,6.760000,-0.038760,
2025-10-15T08:10:42.617891+00:00,6.765000,-0.043320,
2025-10-15T08:10:42.622891+00:00,6.770000,-0.053580,
2025-10-15T08:10:42.627891+00:00,6.775000,-0.053200,
2025-10-15T08:10:42.632891+00:00,6.780000,-0.045600,
2025-10-15T08:10:42.637891+00:00,6.785000,-0.047880,
2025-10-15T08:10:42.642891+00:00,6.790000,-0.047500,
2025-10-15T08:10:42.647891+00:00,6.795000,-0.038760,
2025-10-15T08:10:42.652891+00:00,6.800000,-0.040660,
2025-10-15T08:10:42.657891+00:00,6.805000,-0.049780,
2025-10-15T08:10:42.662891+00:00,6.810000,-0.050540,
2025-10-15T08:10:42.667891+00:00,6.815000,-0.051680,
2025-10-15T08:10:42.672891+00:00,6.820000,-0.055480,
2025-10-15T08:10:42.677891+00:00,6.825000,-0.050540,
2025-10-15T08:10:42.682891+00:00,6.830000,-0.044080,
2025-10-15T08:10:42.687891+00:00,6.835000,-0.052820,
2025-10-15T08:10:42.692891+00:00,6.840000,-0.060420,
2025-10-15T08:10:42.697891+00:00,6.845000,-0.055480,
2025-10-15T08:10:42.702891+00:00,6.850000,-0.053580,
2025-10-15T08:10:42.707891+00:00,6.855000,-0.050920,
2025-10-15T08:10:42.712891+00:00,6.860000,-0.039520,
2025-10-15T08:10:42.717891+00:00,6.865000,-0.031540,
2025-10-15T08:10:42.722891+00:00,6.870000,-0.033440,
2025-10-15T08:10:42.727891+00:00,6.875000,-0.028120,
2025-10-15T08:10:42.732891+00:00,6.880000,-0.021660,
2025-10-15T08:10:42.737891+00:00,6.885000,-0.029640,
2025-10-15T08:10:42.742891+00:00,6.890000,-0.037240,
2025-10-15T08:10:42.747891+00:00,6.895000,-0.033440,
2025-10-15T08:10:42.752891+00:00,6.900000,-0.036480,
2025-10-15T08:10:42.757891+00:00,6.905000,-0.041420,
2025-10-15T08:10:42.762891+00:00,6.910000,-0.035340,
2025-10-15T08:10:42.767891+00:00,6.915000,-0.029260,
2025-10-15T08:10:42.772891+00:00,6.920000,-0.032680,
2025-10-15T08:10:42.777891+00:00,6.925000,-0.033440,
2025-10-15T08:10:42.782891+00:00,6.930000,-0.031540,
2025-10-15T08:10:42.787891+00:00,6.935000,-0.039520,
2025-10-15T08:10:42.792891+00:00,6.940000,-0.045980,
2025-10-15T08:10:42.797891+00:00,6.945000,-0.042940,
2025-10-15T08:10:42.802891+00:00,6.950000,-0.047880,
2025-10-15T08:10:42.807891+00:00,6.955000,-0.054340,
2025-10-15T08:10:42.812891+00:00,6.960000,-0.045980,
2025-10-15T08:10:42.817891+00:00,6.965000,-0.034580,
2025-10-15T08:10:42.822891+00:00,6.970000,-0.033440,
2025-10-15T08:10:42.827891+00:00,6.975000,-0.030400,
2025-10-15T08:10:42.832891+00:00,6.980000,-0.030020,
2025-10-15T08:10:42.837891+00:00,6.985000,-0.040280,
2025-10-15T08:10:42.842891+00:00,6.990000,-0.045980,
2025-10-15T08:10:42.847891+00:00,6.995000,-0.037240,
2025-10-15T08:10:42.852891+00:00,7.000000,-0.037620,
2025-10-15T08:10:42.857891+00:00,7.005000,-0.044460,
2025-10-15T08:10:42.862891+00:00,7.010000,-0.044080,
2025-10-15T08:10:42.867891+00:00,7.015000,-0.045980,
2025-10-15T08:10:42.872891+00:00,7.020000,-0.056240,
2025-10-15T08:10:42.877891+00:00,7.025000,-0.054340,
2025-10-15T08:10:42.882891+00:00,7.030000,-0.046360,
2025-10-15T08:10:42.887891+00:00,7.035000,-0.049020,
2025-10-15T08:10:42.892891+00:00,7.040000,-0.051300,
2025-10-15T08:10:42.897891+00:00,7.045000,-0.047120,
2025-10-15T08:10:42.902891+00:00,7.050000,-0.047500,
2025-10-15T08:10:42.907891+00:00,7.055000,-0.054340,
2025-10-15T08:10:42.912891+00:00,7.060000,-0.050160,
2025-10-15T08:10:42.917891+00:00,7.065000,-0.047880,
2025-10-15T08:10:42.922891+00:00,7.070000,-0.052820,
2025-10-15T08:10:42.927891+00:00,7.075000,-0.047120,
2025-10-15T08:10:42.932891+00:00,7.080000,-0.038760,
2025-10-15T08:10:42.937891+00:00,7.085000,-0.039520,
2025-10-15T08:10:42.942891+00:00,7.090000,-0.038380,
2025-10-15T08:10:42.947891+00:00,7.095000,-0.026980,
2025-10-15T08:10:42.952891+00:00,7.100000,-0.026980,
2025-10-15T08:10:42.957891+00:00,7.105000,-0.038000,
2025-10-15T08:10:42.962891+00:00,7.110000,-0.039900,
2025-10-15T08:10:42.967891+00:00,7.115000,-0.039520,
2025-10-15T08:10:42.972891+00:00,7.120000,-0.041800,
2025-10-15T08:10:42.977891+00:00,7.125000,-0.036480,
2025-10-15T08:10:42.982891+00:00,7.130000,-0.034200,
2025-10-15T08:10:42.987891+00:00,7.135000,-0.049400,
2025-10-15T08:10:42.992891+00:00,7.140000,-0.060420,
2025-10-15T08:10:42.997891+00:00,7.145000,-0.052820,
2025-10-15T08:10:43.002891+00:00,7.150000,-0.047880,
2025-10-15T08:10:43.007891+00:00,7.155000,-0.049020,
2025-10-15T08:10:43.012891+00:00,7.160000,-0.042180,
2025-10-15T08:10:43.017891+00:00,7.165000,-0.040280,
2025-10-15T08:10:43.022891+00:00,7.170000,-0.045600,
2025-10-15T08:10:43.027891+00:00,7.175000,-0.041800,
2025-10-15T08:10:43.032891+00:00,7.180000,-0.033440,
2025-10-15T08:10:43.037891+00:00,7.185000,-0.033060,
2025-10-15T08:10:43.042891+00:00,7.190000,-0.032300,
2025-10-15T08:10:43.047891+00:00,7.195000,-0.023560,
2025-10-15T08:10:43.052891+00:00,7.200000,-0.025840,
2025-10-15T08:10:43.057891+00:00,7.205000,-0.034960,
2025-10-15T08:10:43.062891+00:00,7.210000,-0.033440,
2025-10-15T08:10:43.067891+00:00,7.215000,-0.029260,
2025-10-15T08:10:43.072891+00:00,7.220000,-0.031540,
2025-10-15T08:10:43.077891+00:00,7.225000,-0.029260,
2025-10-15T08:10:43.082891+00:00,7.230000,-0.027360,
2025-10-15T08:10:43.087891+00:00,7.235000,-0.037620,
2025-10-15T08:10:43.092891+00:00,7.240000,-0.047120,
2025-10-15T08:10:43.097891+00:00,7.245000,-0.044080,
2025-10-15T08:10:43.102891+00:00,7.250000,-0.045220,
2025-10-15T08:10:43.107891+00:00,7.255000,-0.047880,
2025-10-15T08:10:43.112891+00:00,7.260000,-0.041040,
2025-10-15T08:10:43.117891+00:00,7.265000,-0.035340,
2025-10-15T08:10:43.122891+00:00,7.270000,-0.041800,
2025-10-15T08:10:43.127891+00:00,7.275000,-0.042560,
2025-10-15T08:10:43.132891+00:00,7.280000,-0.039900,
2025-10-15T08:10:43.137891+00:00,7.285000,-0.044840,
2025-10-15T08:10:43.142891+00:00,7.290000,-0.044080,
2025-10-15T08:10:43.147891+00:00,7.295000,-0.034580,
2025-10-15T08:10:43.152891+00:00,7.300000,-0.034200,
2025-10-15T08:10:43.157891+00:00,7.305000,-0.038760,
2025-10-15T08:10:43.162891+00:00,7.310000,-0.031920,
2025-10-15T08:10:43.167891+00:00,7.315000,-0.029260,
2025-10-15T08:10:43.172891+00:00,7.320000,-0.040280,
2025-10-15T08:10:43.177891+00:00,7.325000,-0.047120,
2025-10-15T08:10:43.182891+00:00,7.330000,-0.045980,
2025-10-15T08:10:43.187891+00:00,7.335000,-0.049400,
2025-10-15T08:10:43.192891+00:00,7.340000,-0.045980,
2025-10-15T08:10:43.197891+00:00,7.345000,-0.035340,
2025-10-15T08:10:43.202891+00:00,7.350000,-0.034960,
2025-10-15T08:10:43.207891+00:00,7.355000,-0.042940,
2025-10-15T08:10:43.212891+00:00,7.360000,-0.040280,
2025-10-15T08:10:43.217891+00:00,7.365000,-0.039900,
2025-10-15T08:10:43.222891+00:00,7.370000,-0.047880,
2025-10-15T08:10:43.227891+00:00,7.375000,-0.047880,
2025-10-15T08:10:43.232891+00:00,7.380000,-0.041040,
2025-10-15T08:10:43.237891+00:00,7.385000,-0.042180,
2025-10-15T08:10:43.242891+00:00,7.390000,-0.042560,
2025-10-15T08:10:43.247891+00:00,7.395000,-0.036860,
2025-10-15T08:10:43.252891+00:00,7.400000,-0.040280,
2025-10-15T08:10:43.257891+00:00,7.405000,-0.046740,
2025-10-15T08:10:43.262891+00:00,7.410000,-0.042940,
2025-10-15T08:10:43.267891+00:00,7.415000,-0.036860,
2025-10-15T08:10:43.272891+00:00,7.420000,-0.041040,
2025-10-15T08:10:43.277891+00:00,7.425000,-0.036860,
2025-10-15T08:10:43.282891+00:00,7.430000,-0.030780,
2025-10-15T08:10:43.287891+00:00,7.435000,-0.039520,
2025-10-15T08:10:43.292891+00:00,7.440000,-0.047500,
2025-10-15T08:10:43.297891+00:00,7.445000,-0.044460,
2025-10-15T08:10:43.302891+00:00,7.450000,-0.044840,
2025-10-15T08:10:43.307891+00:00,7.455000,-0.046740,
2025-10-15T08:10:43.312891+00:00,7.460000,-0.038760,
2025-10-15T08:10:43.317891+00:00,7.465000,-0.032680,
2025-10-15T08:10:43.322891+00:00,7.470000,-0.039520,
2025-10-15T08:10:43.327891+00:00,7.475000,-0.036860,
2025-10-15T08:10:43.332891+00:00,7.480000,-0.034960,
2025-10-15T08:10:43.337891+00:00,7.485000,-0.044840,
2025-10-15T08:10:43.342891+00:00,7.490000,-0.050540,
2025-10-15T08:10:43.347891+00:00,7.495000,-0.041800,
2025-10-15T08:10:43.352891+00:00,7.500000,-0.036860,
2025-10-15T08:10:43.357891+00:00,7.505000,-0.041800,
2025-10-15T08:10:43.362891+00:00,7.510000,-0.039900,
2025-10-15T08:10:43.367891+00:00,7.515000,-0.039140,
2025-10-15T08:10:43.372891+00:00,7.520000,-0.042180,
2025-10-15T08:10:43.377891+00:00,7.525000,-0.037240,
2025-10-15T08:10:43.382891+00:00,7.530000,-0.032300,
2025-10-15T08:10:43.387891+00:00,7.535000,-0.039520,
2025-10-15T08:10:43.392891+00:00,7.540000,-0.044840,
2025-10-15T08:10:43.397891+00:00,7.545000,-0.039520,
2025-10-15T08:10:43.402891+00:00,7.550000,-0.039520,
2025-10-15T08:10:43.407891+00:00,7.555000,-0.045220,
2025-10-15T08:10:43.412891+00:00,7.560000,-0.042560,
2025-10-15T08:10:43.417891+00:00,7.565000,-0.041420,
2025-10-15T08:10:43.422891+00:00,7.570000,-0.048260,
2025-10-15T08:10:43.427891+00:00,7.575000,-0.048640,
2025-10-15T08:10:43.432891+00:00,7.580000,-0.041800,
2025-10-15T08:10:43.437891+00:00,7.585000,-0.045980,
2025-10-15T08:10:43.442891+00:00,7.590000,-0.047120,
2025-10-15T08:10:43.447891+00:00,7.595000,-0.039140,
2025-10-15T08:10:43.452891+00:00,7.600000,-0.039520,
2025-10-15T08:10:43.457891+00:00,7.605000,-0.049020,
2025-10-15T08:10:43.462891+00:00,7.610000,-0.049020,
2025-10-15T08:10:43.467891+00:00,7.615000,-0.047880,
2025-10-15T08:10:43.472891+00:00,7.620000,-0.050540,
2025-10-15T08:10:43.477891+00:00,7.625000,-0.045220,
2025-10-15T08:10:43.482891+00:00,7.630000,-0.037620,
2025-10-15T08:10:43.487891+00:00,7.635000,-0.045220,
2025-10-15T08:10:43.492891+00:00,7.640000,-0.050920,
2025-10-15T08:10:43.497891+00:00,7.645000,-0.044840,
2025-10-15T08:10:43.502891+00:00,7.650000,-0.044840,
2025-10-15T08:10:43.507891+00:00,7.655000,-0.049780,
2025-10-15T08:10:43.512891+00:00,7.660000,-0.045220,
2025-10-15T08:10:43.517891+00:00,7.665000,-0.043320,
2025-10-15T08:10:43.522891+00:00,7.670000,-0.050160,
2025-10-15T08:10:43.527891+00:00,7.675000,-0.050540,
2025-10-15T08:10:43.532891+00:00,7.680000,-0.048640,
2025-10-15T08:10:43.537891+00:00,7.685000,-0.056240,
2025-10-15T08:10:43.542891+00:00,7.690000,-0.057380,
2025-10-15T08:10:43.547891+00:00,7.695000,-0.043320,
2025-10-15T08:10:43.552891+00:00,7.700000,-0.036480,
2025-10-15T08:10:43.557891+00:00,7.705000,-0.039520,
2025-10-15T08:10:43.562891+00:00,7.710000,-0.037240,
2025-10-15T08:10:43.567891+00:00,7.715000,-0.038380,
2025-10-15T08:10:43.572891+00:00,7.720000,-0.049020,
2025-10-15T08:10:43.577891+00:00,7.725000,-0.047880,
2025-10-15T08:10:43.582891+00:00,7.730000,-0.040660,
2025-10-15T08:10:43.587891+00:00,7.735000,-0.044840,
2025-10-15T08:10:43.592891+00:00,7.740000,-0.046740,
2025-10-15T08:10:43.597891+00:00,7.745000,-0.040280,
2025-10-15T08:10:43.602891+00:00,7.750000,-0.042180,
2025-10-15T08:10:43.607891+00:00,7.755000,-0.049780,
2025-10-15T08:10:43.612891+00:00,7.760000,-0.043700,
2025-10-15T08:10:43.617891+00:00,7.765000,-0.034960,
2025-10-15T08:10:43.622891+00:00,7.770000,-0.035720,
2025-10-15T08:10:43.627891+00:00,7.775000,-0.031160,
2025-10-15T08:10:43.632891+00:00,7.780000,-0.024320,
2025-10-15T08:10:43.637891+00:00,7.785000,-0.028500,
2025-10-15T08:10:43.642891+00:00,7.790000,-0.034200,
2025-10-15T08:10:43.647891+00:00,7.795000,-0.034200,
2025-10-15T08:10:43.652891+00:00,7.800000,-0.040660,
2025-10-15T08:10:43.657891+00:00,7.805000,-0.046360,
2025-10-15T08:10:43.662891+00:00,7.810000,-0.036480,
2025-10-15T08:10:43.667891+00:00,7.815000,-0.027360,
2025-10-15T08:10:43.672891+00:00,7.820000,-0.030020,
2025-10-15T08:10:43.677891+00:00,7.825000,-0.023180,
2025-10-15T08:10:43.682891+00:00,7.830000,-0.009880,
2025-10-15T08:10:43.687891+00:00,7.835000,-0.011400,
2025-10-15T08:10:43.692891+00:00,7.840000,-0.017480,
2025-10-15T08:10:43.697891+00:00,7.845000,-0.014820,
2025-10-15T08:10:43.702891+00:00,7.850000,-0.019380,
2025-10-15T08:10:43.707891+00:00,7.855000,-0.025080,
2025-10-15T08:10:43.712891+00:00,7.860000,-0.019760,
2025-10-15T08:10:43.717891+00:00,7.865000,-0.017480,
2025-10-15T08:10:43.722891+00:00,7.870000,-0.023560,
2025-10-15T08:10:43.727891+00:00,7.875000,-0.021280,
2025-10-15T08:10:43.732891+00:00,7.880000,-0.013680,
2025-10-15T08:10:43.737891+00:00,7.885000,-0.017860,
2025-10-15T08:10:43.742891+00:00,7.890000,-0.024700,
2025-10-15T08:10:43.747891+00:00,7.895000,-0.023940,
2025-10-15T08:10:43.752891+00:00,7.900000,-0.027740,
2025-10-15T08:10:43.757891+00:00,7.905000,-0.032300,
2025-10-15T08:10:43.762891+00:00,7.910000,-0.025460,
2025-10-15T08:10:43.767891+00:00,7.915000,-0.021280,
2025-10-15T08:10:43.772891+00:00,7.920000,-0.030400,
2025-10-15T08:10:43.777891+00:00,7.925000,-0.034580,
2025-10-15T08:10:43.782891+00:00,7.930000,-0.033440,
2025-10-15T08:10:43.787891+00:00,7.935000,-0.037620,
2025-10-15T08:10:43.792891+00:00,7.940000,-0.035340,
2025-10-15T08:10:43.797891+00:00,7.945000,-0.025080,
2025-10-15T08:10:43.802891+00:00,7.950000,-0.026220,
2025-10-15T08:10:43.807891+00:00,7.955000,-0.033820,
2025-10-15T08:10:43.812891+00:00,7.960000,-0.031540,
2025-10-15T08:10:43.817891+00:00,7.965000,-0.029260,
2025-10-15T08:10:43.822891+00:00,7.970000,-0.036480,
2025-10-15T08:10:43.827891+00:00,7.975000,-0.034580,
2025-10-15T08:10:43.832891+00:00,7.980000,-0.026980,
2025-10-15T08:10:43.837891+00:00,7.985000,-0.029640,
2025-10-15T08:10:43.842891+00:00,7.990000,-0.033440,
2025-10-15T08:10:43.847891+00:00,7.995000,-0.028500,
2025-10-15T08:10:43.852891+00:00,8.000000,-0.030400,
2025-10-15T08:10:43.857891+00:00,8.005000,-0.037240,
2025-10-15T08:10:43.862891+00:00,8.010000,-0.031160,
2025-10-15T08:10:43.867891+00:00,8.015000,-0.027360,
2025-10-15T08:10:43.872891+00:00,8.020000,-0.033440,
2025-10-15T08:10:43.877891+00:00,8.025000,-0.034200,
2025-10-15T08:10:43.882891+00:00,8.030000,-0.030780,
2025-10-15T08:10:43.887891+00:00,8.035000,-0.034580,
2025-10-15T08:10:43.892891+00:00,8.040000,-0.032680,
2025-10-15T08:10:43.897891+00:00,8.045000,-0.022420,
2025-10-15T08:10:43.902891+00:00,8.050000,-0.022420,
2025-10-15T08:10:43.907891+00:00,8.055000,-0.029640,
2025-10-15T08:10:43.912891+00:00,8.060000,-0.024700,
2025-10-15T08:10:43.917891+00:00,8.065000,-0.018620,
2025-10-15T08:10:43.922891+00:00,8.070000,-0.022420,
2025-10-15T08:10:43.927891+00:00,8.075000,-0.023940,
2025-10-15T08:10:43.932891+00:00,8.080000,-0.023560,
2025-10-15T08:10:43.937891+00:00,8.085000,-0.033060,
2025-10-15T08:10:43.942891+00:00,8.090000,-0.039900,
2025-10-15T08:10:43.947891+00:00,8.095000,-0.035340,
2025-10-15T08:10:43.952891+00:00,8.100000,-0.036860,
2025-10-15T08:10:43.957891+00:00,8.105000,-0.042560,
2025-10-15T08:10:43.962891+00:00,8.110000,-0.038380,
2025-10-15T08:10:43.967891+00:00,8.115000,-0.035720,
2025-10-15T08:10:43.972891+00:00,8.120000,-0.042560,
2025-10-15T08:10:43.977891+00:00,8.125000,-0.043320,
2025-10-15T08:10:43.982891+00:00,8.130000,-0.039520,
2025-10-15T08:10:43.987891+00:00,8.135000,-0.046740,
2025-10-15T08:10:43.992891+00:00,8.140000,-0.049400,
2025-10-15T08:10:43.997891+00:00,8.145000,-0.037620,
2025-10-15T08:10:44.002891+00:00,8.150000,-0.029640,
2025-10-15T08:10:44.007891+00:00,8.155000,-0.031540,
2025-10-15T08:10:44.012891+00:00,8.160000,-0.029260,
2025-10-15T08:10:44.017891+00:00,8.165000,-0.028880,
2025-10-15T08:10:44.022891+00:00,8.170000,-0.033820,
2025-10-15T08:10:44.027891+00:00,8.175000,-0.029640,
2025-10-15T08:10:44.032891+00:00,8.180000,-0.022800,
2025-10-15T08:10:44.037891+00:00,8.185000,-0.029640,
2025-10-15T08:10:44.042891+00:00,8.190000,-0.033440,
2025-10-15T08:10:44.047891+00:00,8.195000,-0.024700,
2025-10-15T08:10:44.052891+00:00,8.200000,-0.022420,
2025-10-15T08:10:44.057891+00:00,8.205000,-0.025080,
2025-10-15T08:10:44.062891+00:00,8.210000,-0.021280,
2025-10-15T08:10:44.067891+00:00,8.215000,-0.021280,
2025-10-15T08:10:44.072891+00:00,8.220000,-0.030780,
2025-10-15T08:10:44.077891+00:00,8.225000,-0.030020,
2025-10-15T08:10:44.082891+00:00,8.230000,-0.023940,
2025-10-15T08:10:44.087891+00:00,8.235000,-0.027360,
2025-10-15T08:10:44.092891+00:00,8.240000,-0.031920,
2025-10-15T08:10:44.097891+00:00,8.245000,-0.028500,
2025-10-15T08:10:44.102891+00:00,8.250000,-0.034580,
2025-10-15T08:10:44.107891+00:00,8.255000,-0.042940,
2025-10-15T08:10:44.112891+00:00,8.260000,-0.037620,
2025-10-15T08:10:44.117891+00:00,8.265000,-0.030020,
2025-10-15T08:10:44.122891+00:00,8.270000,-0.033440,
2025-10-15T08:10:44.127891+00:00,8.275000,-0.033060,
2025-10-15T08:10:44.132891+00:00,8.280000,-0.030020,
2025-10-15T08:10:44.137891+00:00,8.285000,-0.037240,
2025-10-15T08:10:44.142891+00:00,8.290000,-0.039900,
2025-10-15T08:10:44.147891+00:00,8.295000,-0.031160,
2025-10-15T08:10:44.152891+00:00,8.300000,-0.029260,
2025-10-15T08:10:44.157891+00:00,8.305000,-0.034200,
2025-10-15T08:10:44.162891+00:00,8.310000,-0.028120,
2025-10-15T08:10:44.167891+00:00,8.315000,-0.023940,
2025-10-15T08:10:44.172891+00:00,8.320000,-0.029260,
2025-10-15T08:10:44.177891+00:00,8.325000,-0.027740,
2025-10-15T08:10:44.182891+00:00,8.330000,-0.022800,
2025-10-15T08:10:44.187891+00:00,8.335000,-0.028880,
2025-10-15T08:10:44.192891+00:00,8.340000,-0.033820,
2025-10-15T08:10:44.197891+00:00,8.345000,-0.033060,
2025-10-15T08:10:44.202891+00:00,8.350000,-0.039520,
2025-10-15T08:10:44.207891+00:00,8.355000,-0.049780,
2025-10-15T08:10:44.212891+00:00,8.360000,-0.047880,
2025-10-15T08:10:44.217891+00:00,8.365000,-0.043320,
2025-10-15T08:10:44.222891+00:00,8.370000,-0.047880,
2025-10-15T08:10:44.227891+00:00,8.375000,-0.045220,
2025-10-15T08:10:44.232891+00:00,8.380000,-0.039520,
2025-10-15T08:10:44.237891+00:00,8.385000,-0.044080,
2025-10-15T08:10:44.242891+00:00,8.390000,-0.046360,
2025-10-15T08:10:44.247891+00:00,8.395000,-0.036100,
2025-10-15T08:10:44.252891+00:00,8.400000,-0.036100,
2025-10-15T08:10:44.257891+00:00,8.405000,-0.043700,
2025-10-15T08:10:44.262891+00:00,8.410000,-0.044460,
2025-10-15T08:10:44.267891+00:00,8.415000,-0.042560,
2025-10-15T08:10:44.272891+00:00,8.420000,-0.044460,
2025-10-15T08:10:44.277891+00:00,8.425000,-0.038000,
2025-10-15T08:10:44.282891+00:00,8.430000,-0.030020,
2025-10-15T08:10:44.287891+00:00,8.435000,-0.035340,
2025-10-15T08:10:44.292891+00:00,8.440000,-0.038760,
2025-10-15T08:10:44.297891+00:00,8.445000,-0.032680,
2025-10-15T08:10:44.302891+00:00,8.450000,-0.036480,
2025-10-15T08:10:44.307891+00:00,8.455000,-0.048260,
2025-10-15T08:10:44.312891+00:00,8.460000,-0.050920,
2025-10-15T08:10:44.317891+00:00,8.465000,-0.050540,
2025-10-15T08:10:44.322891+00:00,8.470000,-0.056240,
2025-10-15T08:10:44.327891+00:00,8.475000,-0.053580,
2025-10-15T08:10:44.332891+00:00,8.480000,-0.048640,
2025-10-15T08:10:44.337891+00:00,8.485000,-0.054340,
2025-10-15T08:10:44.342891+00:00,8.490000,-0.057760,
2025-10-15T08:10:44.347891+00:00,8.495000,-0.048260,
2025-10-15T08:10:44.352891+00:00,8.500000,-0.046360,
2025-10-15T08:10:44.357891+00:00,8.505000,-0.052820,
2025-10-15T08:10:44.362891+00:00,8.510000,-0.051680,
2025-10-15T08:10:44.367891+00:00,8.515000,-0.050540,
2025-10-15T08:10:44.372891+00:00,8.520000,-0.053580,
2025-10-15T08:10:44.377891+00:00,8.525000,-0.047500,
2025-10-15T08:10:44.382891+00:00,8.530000,-0.040280,
2025-10-15T08:10:44.387891+00:00,8.535000,-0.047500,
2025-10-15T08:10:44.392891+00:00,8.540000,-0.054720,
2025-10-15T08:10:44.397891+00:00,8.545000,-0.050160,
2025-10-15T08:10:44.402891+00:00,8.550000,-0.046360,
2025-10-15T08:10:44.407891+00:00,8.555000,-0.046360,
2025-10-15T08:10:44.412891+00:00,8.560000,-0.038380,
2025-10-15T08:10:44.417891+00:00,8.565000,-0.032680,
2025-10-15T08:10:44.422891+00:00,8.570000,-0.038760,
2025-10-15T08:10:44.427891+00:00,8.575000,-0.039520,
2025-10-15T08:10:44.432891+00:00,8.580000,-0.040660,
2025-10-15T08:10:44.437891+00:00,8.585000,-0.052440,
2025-10-15T08:10:44.442891+00:00,8.590000,-0.061940,
2025-10-15T08:10:44.447891+00:00,8.595000,-0.057000,
2025-10-15T08:10:44.452891+00:00,8.600000,-0.055100,
2025-10-15T08:10:44.457891+00:00,8.605000,-0.056620,
2025-10-15T08:10:44.462891+00:00,8.610000,-0.052060,
2025-10-15T08:10:44.467891+00:00,8.615000,-0.049400,
2025-10-15T08:10:44.472891+00:00,8.620000,-0.054720,
2025-10-15T08:10:44.477891+00:00,8.625000,-0.056240,
2025-10-15T08:10:44.482891+00:00,8.630000,-0.060420,
2025-10-15T08:10:44.487891+00:00,8.635000,-0.078280,
2025-10-15T08:10:44.492891+00:00,8.640000,-0.088540,
2025-10-15T08:10:44.497891+00:00,8.645000,-0.080180,
2025-10-15T08:10:44.502891+00:00,8.650000,-0.072580,
2025-10-15T08:10:44.507891+00:00,8.655000,-0.069160,
2025-10-15T08:10:44.512891+00:00,8.660000,-0.056620,
2025-10-15T08:10:44.517891+00:00,8.665000,-0.039900,
2025-10-15T08:10:44.522891+00:00,8.670000,-0.034580,
2025-10-15T08:10:44.527891+00:00,8.675000,-0.029640,
2025-10-15T08:10:44.532891+00:00,8.680000,-0.025080,
2025-10-15T08:10:44.537891+00:00,8.685000,-0.032300,
2025-10-15T08:10:44.542891+00:00,8.690000,-0.035720,
2025-10-15T08:10:44.547891+00:00,8.695000,-0.028880,
2025-10-15T08:10:44.552891+00:00,8.700000,-0.029260,
2025-10-15T08:10:44.557891+00:00,8.705000,-0.033060,
2025-10-15T08:10:44.562891+00:00,8.710000,-0.026980,
2025-10-15T08:10:44.567891+00:00,8.715000,-0.024700,
2025-10-15T08:10:44.572891+00:00,8.720000,-0.031160,
2025-10-15T08:10:44.577891+00:00,8.725000,-0.030400,
2025-10-15T08:10:44.582891+00:00,8.730000,-0.023940,
2025-10-15T08:10:44.587891+00:00,8.735000,-0.029260,
2025-10-15T08:10:44.592891+00:00,8.740000,-0.033060,
2025-10-15T08:10:44.597891+00:00,8.745000,-0.027740,
2025-10-15T08:10:44.602891+00:00,8.750000,-0.027360,
2025-10-15T08:10:44.607891+00:00,8.755000,-0.031920,
2025-10-15T08:10:44.612891+00:00,8.760000,-0.026220,
2025-10-15T08:10:44.617891+00:00,8.765000,-0.021660,
2025-10-15T08:10:44.622891+00:00,8.770000,-0.027740,
2025-10-15T08:10:44.627891+00:00,8.775000,-0.028120,
2025-10-15T08:10:44.632891+00:00,8.780000,-0.024320,
2025-10-15T08:10:44.637891+00:00,8.785000,-0.029260,
2025-10-15T08:10:44.642891+00:00,8.790000,-0.030020,
2025-10-15T08:10:44.647891+00:00,8.795000,-0.023180,
2025-10-15T08:10:44.652891+00:00,8.800000,-0.022420,
2025-10-15T08:10:44.657891+00:00,8.805000,-0.027360,
2025-10-15T08:10:44.662891+00:00,8.810000,-0.020900,
2025-10-15T08:10:44.667891+00:00,8.815000,-0.016340,
2025-10-15T08:10:44.672891+00:00,8.820000,-0.022800,
2025-10-15T08:10:44.677891+00:00,8.825000,-0.021660,
2025-10-15T08:10:44.682891+00:00,8.830000,-0.016720,
2025-10-15T08:10:44.687891+00:00,8.835000,-0.018620,
2025-10-15T08:10:44.692891+00:00,8.840000,-0.020900,
2025-10-15T08:10:44.697891+00:00,8.845000,-0.014820,
2025-10-15T08:10:44.702891+00:00,8.850000,-0.017480,
2025-10-15T08:10:44.707891+00:00,8.855000,-0.025080,
2025-10-15T08:10:44.712891+00:00,8.860000,-0.026980,
2025-10-15T08:10:44.717891+00:00,8.865000,-0.028880,
2025-10-15T08:10:44.722891+00:00,8.870000,-0.036100,
2025-10-15T08:10:44.727891+00:00,8.875000,-0.034960,
2025-10-15T08:10:44.732891+00:00,8.880000,-0.026220,
2025-10-15T08:10:44.737891+00:00,8.885000,-0.026220,
2025-10-15T08:10:44.742891+00:00,8.890000,-0.024320,
2025-10-15T08:10:44.747891+00:00,8.895000,-0.017100,
2025-10-15T08:10:44.752891+00:00,8.900000,-0.019380,
2025-10-15T08:10:44.757891+00:00,8.905000,-0.026980,
2025-10-15T08:10:44.762891+00:00,8.910000,-0.025080,
2025-10-15T08:10:44.767891+00:00,8.915000,-0.023180,
2025-10-15T08:10:44.772891+00:00,8.920000,-0.026220,
2025-10-15T08:10:44.777891+00:00,8.925000,-0.022800,
2025-10-15T08:10:44.782891+00:00,8.930000,-0.015580,
2025-10-15T08:10:44.787891+00:00,8.935000,-0.022800,
2025-10-15T08:10:44.792891+00:00,8.940000,-0.031540,
2025-10-15T08:10:44.797891+00:00,8.945000,-0.030020,
2025-10-15T08:10:44.802891+00:00,8.950000,-0.031920,
2025-10-15T08:10:44.807891+00:00,8.955000,-0.039900,
2025-10-15T08:10:44.812891+00:00,8.960000,-0.039900,
2025-10-15T08:10:44.817891+00:00,8.965000,-0.039520,
2025-10-15T08:10:44.822891+00:00,8.970000,-0.046360,
2025-10-15T08:10:44.827891+00:00,8.975000,-0.046360,
2025-10-15T08:10:44.832891+00:00,8.980000,-0.038380,
2025-10-15T08:10:44.837891+00:00,8.985000,-0.040280,
2025-10-15T08:10:44.842891+00:00,8.990000,-0.041800,
2025-10-15T08:10:44.847891+00:00,8.995000,-0.035720,
2025-10-15T08:10:44.852891+00:00,9.000000,-0.034200,
2025-10-15T08:10:44.857891+00:00,9.005000,-0.037240,
2025-10-15T08:10:44.862891+00:00,9.010000,-0.031540,
2025-10-15T08:10:44.867891+00:00,9.015000,-0.028500,
2025-10-15T08:10:44.872891+00:00,9.020000,-0.034580,
2025-10-15T08:10:44.877891+00:00,9.025000,-0.031920,
2025-10-15T08:10:44.882891+00:00,9.030000,-0.026220,
2025-10-15T08:10:44.887891+00:00,9.035000,-0.030020,
2025-10-15T08:10:44.892891+00:00,9.040000,-0.030400,
2025-10-15T08:10:44.897891+00:00,9.045000,-0.021280,
2025-10-15T08:10:44.902891+00:00,9.050000,-0.023940,
2025-10-15T08:10:44.907891+00:00,9.055000,-0.036860,
2025-10-15T08:10:44.912891+00:00,9.060000,-0.036860,
2025-10-15T08:10:44.917891+00:00,9.065000,-0.028500,
2025-10-15T08:10:44.922891+00:00,9.070000,-0.024320,
2025-10-15T08:10:44.927891+00:00,9.075000,-0.018240,
2025-10-15T08:10:44.932891+00:00,9.080000,-0.011780,
2025-10-15T08:10:44.937891+00:00,9.085000,-0.013300,
2025-10-15T08:10:44.942891+00:00,9.090000,-0.013300,
2025-10-15T08:10:44.947891+00:00,9.095000,-0.006840,
2025-10-15T08:10:44.952891+00:00,9.100000,-0.008360,
2025-10-15T08:10:44.957891+00:00,9.105000,-0.016340,
2025-10-15T08:10:44.962891+00:00,9.110000,-0.013300,
2025-10-15T08:10:44.967891+00:00,9.115000,-0.009880,
2025-10-15T08:10:44.972891+00:00,9.120000,-0.012920,
2025-10-15T08:10:44.977891+00:00,9.125000,-0.010260,
2025-10-15T08:10:44.982891+00:00,9.130000,-0.005320,
2025-10-15T08:10:44.987891+00:00,9.135000,-0.011400,
2025-10-15T08:10:44.992891+00:00,9.140000,-0.016720,
2025-10-15T08:10:44.997891+00:00,9.145000,-0.010260,
2025-10-15T08:10:45.002891+00:00,9.150000,-0.009500,
2025-10-15T08:10:45.007891+00:00,9.155000,-0.015580,
2025-10-15T08:10:45.012891+00:00,9.160000,-0.017100,
2025-10-15T08:10:45.017891+00:00,9.165000,-0.020140,
2025-10-15T08:10:45.022891+00:00,9.170000,-0.031540,
2025-10-15T08:10:45.027891+00:00,9.175000,-0.034200,
2025-10-15T08:10:45.032891+00:00,9.180000,-0.031540,
2025-10-15T08:10:45.037891+00:00,9.185000,-0.036100,
2025-10-15T08:10:45.042891+00:00,9.190000,-0.038380,
2025-10-15T08:10:45.047891+00:00,9.195000,-0.026980,
2025-10-15T08:10:45.052891+00:00,9.200000,-0.021280,
2025-10-15T08:10:45.057891+00:00,9.205000,-0.023560,
2025-10-15T08:10:45.062891+00:00,9.210000,-0.022040,
2025-10-15T08:10:45.067891+00:00,9.215000,-0.024320,
2025-10-15T08:10:45.072891+00:00,9.220000,-0.034200,
2025-10-15T08:10:45.077891+00:00,9.225000,-0.033060,
2025-10-15T08:10:45.082891+00:00,9.230000,-0.026220,
2025-10-15T08:10:45.087891+00:00,9.235000,-0.031160,
2025-10-15T08:10:45.092891+00:00,9.240000,-0.037620,
2025-10-15T08:10:45.097891+00:00,9.245000,-0.033820,
2025-10-15T08:10:45.102891+00:00,9.250000,-0.030780,
2025-10-15T08:10:45.107891+00:00,9.255000,-0.031160,
2025-10-15T08:10:45.112891+00:00,9.260000,-0.022800,
2025-10-15T08:10:45.117891+00:00,9.265000,-0.018620,
2025-10-15T08:10:45.122891+00:00,9.270000,-0.022040,
2025-10-15T08:10:45.127891+00:00,9.275000,-0.019760,
2025-10-15T08:10:45.132891+00:00,9.280000,-0.015580,
2025-10-15T08:10:45.137891+00:00,9.285000,-0.020900,
2025-10-15T08:10:45.142891+00:00,9.290000,-0.026600,
2025-10-15T08:10:45.147891+00:00,9.295000,-0.023180,
2025-10-15T08:10:45.152891+00:00,9.300000,-0.026980,
2025-10-15T08:10:45.157891+00:00,9.305000,-0.034200,
2025-10-15T08:10:45.162891+00:00,9.310000,-0.031160,
2025-10-15T08:10:45.167891+00:00,9.315000,-0.029640,
2025-10-15T08:10:45.172891+00:00,9.320000,-0.038000,
2025-10-15T08:10:45.177891+00:00,9.325000,-0.042560,
2025-10-15T08:10:45.182891+00:00,9.330000,-0.041420,
2025-10-15T08:10:45.187891+00:00,9.335000,-0.047880,
2025-10-15T08:10:45.192891+00:00,9.340000,-0.050160,
2025-10-15T08:10:45.197891+00:00,9.345000,-0.039900,
2025-10-15T08:10:45.202891+00:00,9.350000,-0.036100,
2025-10-15T08:10:45.207891+00:00,9.355000,-0.038380,
2025-10-15T08:10:45.212891+00:00,9.360000,-0.032680,
2025-10-15T08:10:45.217891+00:00,9.365000,-0.026980,
2025-10-15T08:10:45.222891+00:00,9.370000,-0.029260,
2025-10-15T08:10:45.227891+00:00,9.375000,-0.026980,
2025-10-15T08:10:45.232891+00:00,9.380000,-0.025460,
2025-10-15T08:10:45.237891+00:00,9.385000,-0.035720,
2025-10-15T08:10:45.242891+00:00,9.390000,-0.042940,
2025-10-15T08:10:45.247891+00:00,9.395000,-0.037240,
2025-10-15T08:10:45.252891+00:00,9.400000,-0.038000,
2025-10-15T08:10:45.257891+00:00,9.405000,-0.044840,
2025-10-15T08:10:45.262891+00:00,9.410000,-0.041420,
2025-10-15T08:10:45.267891+00:00,9.415000,-0.036100,
2025-10-15T08:10:45.272891+00:00,9.420000,-0.037240,
2025-10-15T08:10:45.277891+00:00,9.425000,-0.034200,
2025-10-15T08:10:45.282891+00:00,9.430000,-0.033060,
2025-10-15T08:10:45.287891+00:00,9.435000,-0.039520,
2025-10-15T08:10:45.292891+00:00,9.440000,-0.042560,
2025-10-15T08:10:45.297891+00:00,9.445000,-0.033060,
2025-10-15T08:10:45.302891+00:00,9.450000,-0.028500,
2025-10-15T08:10:45.307891+00:00,9.455000,-0.028120,
2025-10-15T08:10:45.312891+00:00,9.460000,-0.020520,
2025-10-15T08:10:45.317891+00:00,9.465000,-0.017860,
2025-10-15T08:10:45.322891+00:00,9.470000,-0.027360,
2025-10-15T08:10:45.327891+00:00,9.475000,-0.030400,
2025-10-15T08:10:45.332891+00:00,9.480000,-0.024320,
2025-10-15T08:10:45.337891+00:00,9.485000,-0.023560,
2025-10-15T08:10:45.342891+00:00,9.490000,-0.023940,
2025-10-15T08:10:45.347891+00:00,9.495000,-0.021280,
2025-10-15T08:10:45.352891+00:00,9.500000,-0.025080,
2025-10-15T08:10:45.357891+00:00,9.505000,-0.029640,
2025-10-15T08:10:45.362891+00:00,9.510000,-0.021660,
2025-10-15T08:10:45.367891+00:00,9.515000,-0.013680,
2025-10-15T08:10:45.372891+00:00,9.520000,-0.016720,
2025-10-15T08:10:45.377891+00:00,9.525000,-0.018240,
2025-10-15T08:10:45.382891+00:00,9.530000,-0.014440,
2025-10-15T08:10:45.387891+00:00,9.535000,-0.017860,
2025-10-15T08:10:45.392891+00:00,9.540000,-0.016720,
2025-10-15T08:10:45.397891+00:00,9.545000,-0.007600,
2025-10-15T08:10:45.402891+00:00,9.550000,-0.007980,
2025-10-15T08:10:45.407891+00:00,9.555000,-0.019380,
2025-10-15T08:10:45.412891+00:00,9.560000,-0.023180,
2025-10-15T08:10:45.417891+00:00,9.565000,-0.025460,
2025-10-15T08:10:45.422891+00:00,9.570000,-0.032680,
2025-10-15T08:10:45.427891+00:00,9.575000,-0.031920,
2025-10-15T08:10:45.432891+00:00,9.580000,-0.024700,
2025-10-15T08:10:45.437891+00:00,9.585000,-0.028120,
2025-10-15T08:10:45.442891+00:00,9.590000,-0.035340,
2025-10-15T08:10:45.447891+00:00,9.595000,-0.034580,
2025-10-15T08:10:45.452891+00:00,9.600000,-0.040280,
2025-10-15T08:10:45.457891+00:00,9.605000,-0.047880,
2025-10-15T08:10:45.462891+00:00,9.610000,-0.044080,
2025-10-15T08:10:45.467891+00:00,9.615000,-0.038380,
2025-10-15T08:10:45.472891+00:00,9.620000,-0.039900,
2025-10-15T08:10:45.477891+00:00,9.625000,-0.036860,
2025-10-15T08:10:45.482891+00:00,9.630000,-0.031920,
2025-10-15T08:10:45.487891+00:00,9.635000,-0.037620,
2025-10-15T08:10:45.492891+00:00,9.640000,-0.042560,
2025-10-15T08:10:45.497891+00:00,9.645000,-0.038000,
2025-10-15T08:10:45.502891+00:00,9.650000,-0.040280,
2025-10-15T08:10:45.507891+00:00,9.655000,-0.047880,
2025-10-15T08:10:45.512891+00:00,9.660000,-0.045220,
2025-10-15T08:10:45.517891+00:00,9.665000,-0.042940,
2025-10-15T08:10:45.522891+00:00,9.670000,-0.049780,
2025-10-15T08:10:45.527891+00:00,9.675000,-0.050160,
2025-10-15T08:10:45.532891+00:00,9.680000,-0.045980,
2025-10-15T08:10:45.537891+00:00,9.685000,-0.049020,
2025-10-15T08:10:45.542891+00:00,9.690000,-0.051680,
2025-10-15T08:10:45.547891+00:00,9.695000,-0.048260,
2025-10-15T08:10:45.552891+00:00,9.700000,-0.049020,
2025-10-15T08:10:45.557891+00:00,9.705000,-0.052820,
2025-10-15T08:10:45.562891+00:00,9.710000,-0.047500,
2025-10-15T08:10:45.567891+00:00,9.715000,-0.041420,
2025-10-15T08:10:45.572891+00:00,9.720000,-0.047500,
2025-10-15T08:10:45.577891+00:00,9.725000,-0.050540,
2025-10-15T08:10:45.582891+00:00,9.730000,-0.046740,
2025-10-15T08:10:45.587891+00:00,9.735000,-0.048640,
2025-10-15T08:10:45.592891+00:00,9.740000,-0.047880,
2025-10-15T08:10:45.597891+00:00,9.745000,-0.040280,
2025-10-15T08:10:45.602891+00:00,9.750000,-0.038380,
2025-10-15T08:10:45.607891+00:00,9.755000,-0.042180,
2025-10-15T08:10:45.612891+00:00,9.760000,-0.039140,
2025-10-15T08:10:45.617891+00:00,9.765000,-0.037240,
2025-10-15T08:10:45.622891+00:00,9.770000,-0.044460,
2025-10-15T08:10:45.627891+00:00,9.775000,-0.043320,
2025-10-15T08:10:45.632891+00:00,9.780000,-0.036860,
2025-10-15T08:10:45.637891+00:00,9.785000,-0.038000,
2025-10-15T08:10:45.642891+00:00,9.790000,-0.039520,
2025-10-15T08:10:45.647891+00:00,9.795000,-0.035340,
2025-10-15T08:10:45.652891+00:00,9.800000,-0.039140,
2025-10-15T08:10:45.657891+00:00,9.805000,-0.047120,
2025-10-15T08:10:45.662891+00:00,9.810000,-0.041040,
2025-10-15T08:10:45.667891+00:00,9.815000,-0.033060,
2025-10-15T08:10:45.672891+00:00,9.820000,-0.038000,
2025-10-15T08:10:45.677891+00:00,9.825000,-0.040660,
2025-10-15T08:10:45.682891+00:00,9.830000,-0.040660,
2025-10-15T08:10:45.687891+00:00,9.835000,-0.047880,
2025-10-15T08:10:45.692891+00:00,9.840000,-0.047880,
2025-10-15T08:10:45.697891+00:00,9.845000,-0.036100,
2025-10-15T08:10:45.702891+00:00,9.850000,-0.029260,
2025-10-15T08:10:45.707891+00:00,9.855000,-0.030020,
2025-10-15T08:10:45.712891+00:00,9.860000,-0.026220,
2025-10-15T08:10:45.717891+00:00,9.865000,-0.022800,
2025-10-15T08:10:45.722891+00:00,9.870000,-0.027360,
2025-10-15T08:10:45.727891+00:00,9.875000,-0.024320,
2025-10-15T08:10:45.732891+00:00,9.880000,-0.014820,
2025-10-15T08:10:45.737891+00:00,9.885000,-0.013680,
2025-10-15T08:10:45.742891+00:00,9.890000,-0.011020,
2025-10-15T08:10:45.747891+00:00,9.895000,-0.000760,
2025-10-15T08:10:45.752891+00:00,9.900000,0.000760,
2025-10-15T08:10:45.757891+00:00,9.905000,-0.006840,
2025-10-15T08:10:45.762891+00:00,9.910000,-0.004940,
2025-10-15T08:10:45.767891+00:00,9.915000,-0.001520,
2025-10-15T08:10:45.772891+00:00,9.920000,-0.005320,
2025-10-15T08:10:45.777891+00:00,9.925000,-0.003420,
2025-10-15T08:10:45.782891+00:00,9.930000,-0.002660,
2025-10-15T08:10:45.787891+00:00,9.935000,-0.013300,
2025-10-15T08:10:45.792891+00:00,9.940000,-0.022800,
2025-10-15T08:10:45.797891+00:00,9.945000,-0.020140,
2025-10-15T08:10:45.802891+00:00,9.950000,-0.022040,
2025-10-15T08:10:45.807891+00:00,9.955000,-0.029260,
2025-10-15T08:10:45.812891+00:00,9.960000,-0.025460,
2025-10-15T08:10:45.817891+00:00,9.965000,-0.019000,
2025-10-15T08:10:45.822891+00:00,9.970000,-0.022800,
2025-10-15T08:10:45.827891+00:00,9.975000,-0.021660,
2025-10-15T08:10:45.832891+00:00,9.980000,-0.015200,
2025-10-15T08:10:45.837891+00:00,9.985000,-0.018620,
2025-10-15T08:10:45.842891+00:00,9.990000,-0.023940,
2025-10-15T08:10:45.847891+00:00,9.995000,-0.023560,
2025-10-15T08:10:45.852891+00:00,10.000000,-0.026600,
2025-10-15T08:10:45.857891+00:00,10.005000,-0.029640,
2025-10-15T08:10:45.862891+00:00,10.010000,-0.022040,
2025-10-15T08:10:45.867891+00:00,10.015000,-0.017860,
2025-10-15T08:10:45.872891+00:00,10.020000,-0.026220,
2025-10-15T08:10:45.877891+00:00,10.025000,-0.028880,
2025-10-15T08:10:45.882891+00:00,10.030000,-0.028880,
2025-10-15T08:10:45.887891+00:00,10.035000,-0.038000,
2025-10-15T08:10:45.892891+00:00,10.040000,-0.048260,
2025-10-15T08:10:45.897891+00:00,10.045000,-0.047500,
2025-10-15T08:10:45.902891+00:00,10.050000,-0.047500,
2025-10-15T08:10:45.907891+00:00,10.055000,-0.050920,
2025-10-15T08:10:45.912891+00:00,10.060000,-0.041420,
2025-10-15T08:10:45.917891+00:00,10.065000,-0.033820,
2025-10-15T08:10:45.922891+00:00,10.070000,-0.038380,
2025-10-15T08:10:45.927891+00:00,10.075000,-0.039140,
2025-10-15T08:10:45.932891+00:00,10.080000,-0.036100,
2025-10-15T08:10:45.937891+00:00,10.085000,-0.039520,
2025-10-15T08:10:45.942891+00:00,10.090000,-0.040660,
2025-10-15T08:10:45.947891+00:00,10.095000,-0.033060,
2025-10-15T08:10:45.952891+00:00,10.100000,-0.031920,
2025-10-15T08:10:45.957891+00:00,10.105000,-0.031540,
2025-10-15T08:10:45.962891+00:00,10.110000,-0.021280,
2025-10-15T08:10:45.967891+00:00,10.115000,-0.012540,
2025-10-15T08:10:45.972891+00:00,10.120000,-0.016340,
2025-10-15T08:10:45.977891+00:00,10.125000,-0.015580,
2025-10-15T08:10:45.982891+00:00,10.130000,-0.006460,
2025-10-15T08:10:45.987891+00:00,10.135000,-0.004940,
2025-10-15T08:10:45.992891+00:00,10.140000,-0.003040,
2025-10-15T08:10:45.997891+00:00,10.145000,0.006460,
2025-10-15T08:10:46.002891+00:00,10.150000,0.006460,
2025-10-15T08:10:46.007891+00:00,10.155000,-0.001520,
2025-10-15T08:10:46.012891+00:00,10.160000,-0.001520,
2025-10-15T08:10:46.017891+00:00,10.165000,-0.001900,
2025-10-15T08:10:46.022891+00:00,10.170000,-0.010260,
2025-10-15T08:10:46.027891+00:00,10.175000,-0.014820,
2025-10-15T08:10:46.032891+00:00,10.180000,-0.015960,
2025-10-15T08:10:46.037891+00:00,10.185000,-0.025840,
2025-10-15T08:10:46.042891+00:00,10.190000,-0.030020,
2025-10-15T08:10:46.047891+00:00,10.195000,-0.018240,
2025-10-15T08:10:46.052891+00:00,10.200000,-0.011020,
2025-10-15T08:10:46.057891+00:00,10.205000,-0.009500,
2025-10-15T08:10:46.062891+00:00,10.210000,-0.001900,
2025-10-15T08:10:46.067891+00:00,10.215000,0.000000,
2025-10-15T08:10:46.072891+00:00,10.220000,-0.011780,
2025-10-15T08:10:46.077891+00:00,10.225000,-0.017480,
2025-10-15T08:10:46.082891+00:00,10.230000,-0.016340,
2025-10-15T08:10:46.087891+00:00,10.235000,-0.019000,
2025-10-15T08:10:46.092891+00:00,10.240000,-0.017480,
2025-10-15T08:10:46.097891+00:00,10.245000,-0.007220,
2025-10-15T08:10:46.102891+00:00,10.250000,-0.009120,
2025-10-15T08:10:46.107891+00:00,10.255000,-0.019380,
2025-10-15T08:10:46.112891+00:00,10.260000,-0.022420,
2025-10-15T08:10:46.117891+00:00,10.265000,-0.023940,
2025-10-15T08:10:46.122891+00:00,10.270000,-0.030400,
2025-10-15T08:10:46.127891+00:00,10.275000,-0.027360,
2025-10-15T08:10:46.132891+00:00,10.280000,-0.018240,
2025-10-15T08:10:46.137891+00:00,10.285000,-0.018620,
2025-10-15T08:10:46.142891+00:00,10.290000,-0.021660,
2025-10-15T08:10:46.147891+00:00,10.295000,-0.019000,
2025-10-15T08:10:46.152891+00:00,10.300000,-0.022420,
2025-10-15T08:10:46.157891+00:00,10.305000,-0.031160,
2025-10-15T08:10:46.162891+00:00,10.310000,-0.028880,
2025-10-15T08:10:46.167891+00:00,10.315000,-0.028500,
2025-10-15T08:10:46.172891+00:00,10.320000,-0.039140,
2025-10-15T08:10:46.177891+00:00,10.325000,-0.045600,
2025-10-15T08:10:46.182891+00:00,10.330000,-0.042940,
2025-10-15T08:10:46.187891+00:00,10.335000,-0.048640,
2025-10-15T08:10:46.192891+00:00,10.340000,-0.055480,
2025-10-15T08:10:46.197891+00:00,10.345000,-0.055480,
2025-10-15T08:10:46.202891+00:00,10.350000,-0.060420,
2025-10-15T08:10:46.207891+00:00,10.355000,-0.068400,
2025-10-15T08:10:46.212891+00:00,10.360000,-0.068020,
2025-10-15T08:10:46.217891+00:00,10.365000,-0.071060,
2025-10-15T08:10:46.222891+00:00,10.370000,-0.083980,
2025-10-15T08:10:46.227891+00:00,10.375000,-0.087020,
2025-10-15T08:10:46.232891+00:00,10.380000,-0.076380,
2025-10-15T08:10:46.237891+00:00,10.385000,-0.073720,
2025-10-15T08:10:46.242891+00:00,10.390000,-0.071440,
2025-10-15T08:10:46.247891+00:00,10.395000,-0.060040,
2025-10-15T08:10:46.252891+00:00,10.400000,-0.058520,
2025-10-15T08:10:46.257891+00:00,10.405000,-0.066120,
2025-10-15T08:10:46.262891+00:00,10.410000,-0.064980,
2025-10-15T08:10:46.267891+00:00,10.415000,-0.066120,
2025-10-15T08:10:46.272891+00:00,10.420000,-0.075240,
2025-10-15T08:10:46.277891+00:00,10.425000,-0.078280,
2025-10-15T08:10:46.282891+00:00,10.430000,-0.076760,
2025-10-15T08:10:46.287891+00:00,10.435000,-0.081320,
2025-10-15T08:10:46.292891+00:00,10.440000,-0.084740,
2025-10-15T08:10:46.297891+00:00,10.445000,-0.075240,
2025-10-15T08:10:46.302891+00:00,10.450000,-0.072200,
2025-10-15T08:10:46.307891+00:00,10.455000,-0.074860,
2025-10-15T08:10:46.312891+00:00,10.460000,-0.069920,
2025-10-15T08:10:46.317891+00:00,10.465000,-0.069160,
2025-10-15T08:10:46.322891+00:00,10.470000,-0.078660,
2025-10-15T08:10:46.327891+00:00,10.475000,-0.083980,
2025-10-15T08:10:46.332891+00:00,10.480000,-0.082460,
2025-10-15T08:10:46.337891+00:00,10.485000,-0.086260,
2025-10-15T08:10:46.342891+00:00,10.490000,-0.086260,
2025-10-15T08:10:46.347891+00:00,10.495000,-0.073340,
2025-10-15T08:10:46.352891+00:00,10.500000,-0.067260,
2025-10-15T08:10:46.357891+00:00,10.505000,-0.068400,
2025-10-15T08:10:46.362891+00:00,10.510000,-0.060800,
2025-10-15T08:10:46.367891+00:00,10.515000,-0.053580,
2025-10-15T08:10:46.372891+00:00,10.520000,-0.060040,
2025-10-15T08:10:46.377891+00:00,10.525000,-0.063460,
2025-10-15T08:10:46.382891+00:00,10.530000,-0.060040,
2025-10-15T08:10:46.387891+00:00,10.535000,-0.061940,
2025-10-15T08:10:46.392891+00:00,10.540000,-0.063840,
2025-10-15T08:10:46.397891+00:00,10.545000,-0.057380,
2025-10-15T08:10:46.402891+00:00,10.550000,-0.060040,
2025-10-15T08:10:46.407891+00:00,10.555000,-0.068780,
2025-10-15T08:10:46.412891+00:00,10.560000,-0.069160,
2025-10-15T08:10:46.417891+00:00,10.565000,-0.068400,
2025-10-15T08:10:46.422891+00:00,10.570000,-0.074480,
2025-10-15T08:10:46.427891+00:00,10.575000,-0.071440,
2025-10-15T08:10:46.432891+00:00,10.580000,-0.064980,
2025-10-15T08:10:46.437891+00:00,10.585000,-0.069920,
2025-10-15T08:10:46.442891+00:00,10.590000,-0.074860,
2025-10-15T08:10:46.447891+00:00,10.595000,-0.071820,
2025-10-15T08:10:46.452891+00:00,10.600000,-0.076000,
2025-10-15T08:10:46.457891+00:00,10.605000,-0.085500,
2025-10-15T08:10:46.462891+00:00,10.610000,-0.083220,
2025-10-15T08:10:46.467891+00:00,10.615000,-0.079040,
2025-10-15T08:10:46.472891+00:00,10.620000,-0.083980,
2025-10-15T08:10:46.477891+00:00,10.625000,-0.086640,
2025-10-15T08:10:46.482891+00:00,10.630000,-0.085500,
2025-10-15T08:10:46.487891+00:00,10.635000,-0.091960,
2025-10-15T08:10:46.492891+00:00,10.640000,-0.095000,
2025-10-15T08:10:46.497891+00:00,10.645000,-0.088160,
2025-10-15T08:10:46.502891+00:00,10.650000,-0.087020,
2025-10-15T08:10:46.507891+00:00,10.655000,-0.087780,
2025-10-15T08:10:46.512891+00:00,10.660000,-0.075620,
2025-10-15T08:10:46.517891+00:00,10.665000,-0.060800,
2025-10-15T08:10:46.522891+00:00,10.670000,-0.055480,
2025-10-15T08:10:46.527891+00:00,10.675000,-0.046740,
2025-10-15T08:10:46.532891+00:00,10.680000,-0.032680,
2025-10-15T08:10:46.537891+00:00,10.685000,-0.034580,
2025-10-15T08:10:46.542891+00:00,10.690000,-0.041800,
2025-10-15T08:10:46.547891+00:00,10.695000,-0.040660,
2025-10-15T08:10:46.552891+00:00,10.700000,-0.042560,
2025-10-15T08:10:46.557891+00:00,10.705000,-0.048260,
2025-10-15T08:10:46.562891+00:00,10.710000,-0.042180,
2025-10-15T08:10:46.567891+00:00,10.715000,-0.036100,
2025-10-15T08:10:46.572891+00:00,10.720000,-0.041040,
2025-10-15T08:10:46.577891+00:00,10.725000,-0.040280,
2025-10-15T08:10:46.582891+00:00,10.730000,-0.033820,
2025-10-15T08:10:46.587891+00:00,10.735000,-0.036860,
2025-10-15T08:10:46.592891+00:00,10.740000,-0.041040,
2025-10-15T08:10:46.597891+00:00,10.745000,-0.034200,
2025-10-15T08:10:46.602891+00:00,10.750000,-0.031920,
2025-10-15T08:10:46.607891+00:00,10.755000,-0.035340,
2025-10-15T08:10:46.612891+00:00,10.760000,-0.031920,
2025-10-15T08:10:46.617891+00:00,10.765000,-0.030400,
2025-10-15T08:10:46.622891+00:00,10.770000,-0.036860,
2025-10-15T08:10:46.627891+00:00,10.775000,-0.034960,
2025-10-15T08:10:46.632891+00:00,10.780000,-0.029640,
2025-10-15T08:10:46.637891+00:00,10.785000,-0.034200,
2025-10-15T08:10:46.642891+00:00,10.790000,-0.035340,
2025-10-15T08:10:46.647891+00:00,10.795000,-0.025460,
2025-10-15T08:10:46.652891+00:00,10.800000,-0.022040,
2025-10-15T08:10:46.657891+00:00,10.805000,-0.028120,
2025-10-15T08:10:46.662891+00:00,10.810000,-0.026220,
2025-10-15T08:10:46.667891+00:00,10.815000,-0.023560,
2025-10-15T08:10:46.672891+00:00,10.820000,-0.030400,
2025-10-15T08:10:46.677891+00:00,10.825000,-0.030780,
2025-10-15T08:10:46.682891+00:00,10.830000,-0.026220,
2025-10-15T08:10:46.687891+00:00,10.835000,-0.029260,
2025-10-15T08:10:46.692891+00:00,10.840000,-0.030020,
2025-10-15T08:10:46.697891+00:00,10.845000,-0.023940,
2025-10-15T08:10:46.702891+00:00,10.850000,-0.028120,
2025-10-15T08:10:46.707891+00:00,10.855000,-0.038000,
2025-10-15T08:10:46.712891+00:00,10.860000,-0.035340,
2025-10-15T08:10:46.717891+00:00,10.865000,-0.029640,
2025-10-15T08:10:46.722891+00:00,10.870000,-0.035340,
2025-10-15T08:10:46.727891+00:00,10.875000,-0.040280,
2025-10-15T08:10:46.732891+00:00,10.880000,-0.041040,
2025-10-15T08:10:46.737891+00:00,10.885000,-0.049400,
2025-10-15T08:10:46.742891+00:00,10.890000,-0.051300,
2025-10-15T08:10:46.747891+00:00,10.895000,-0.042560,
2025-10-15T08:10:46.752891+00:00,10.900000,-0.036860,
2025-10-15T08:10:46.757891+00:00,10.905000,-0.036480,
2025-10-15T08:10:46.762891+00:00,10.910000,-0.028120,
2025-10-15T08:10:46.767891+00:00,10.915000,-0.023180,
2025-10-15T08:10:46.772891+00:00,10.920000,-0.030780,
2025-10-15T08:10:46.777891+00:00,10.925000,-0.035720,
2025-10-15T08:10:46.782891+00:00,10.930000,-0.033820,
2025-10-15T08:10:46.787891+00:00,10.935000,-0.039900,
2025-10-15T08:10:46.792891+00:00,10.940000,-0.042180,
2025-10-15T08:10:46.797891+00:00,10.945000,-0.033060,
2025-10-15T08:10:46.802891+00:00,10.950000,-0.030020,
2025-10-15T08:10:46.807891+00:00,10.955000,-0.033060,
2025-10-15T08:10:46.812891+00:00,10.960000,-0.027740,
2025-10-15T08:10:46.817891+00:00,10.965000,-0.025460,
2025-10-15T08:10:46.822891+00:00,10.970000,-0.034200,
2025-10-15T08:10:46.827891+00:00,10.975000,-0.038760,
2025-10-15T08:10:46.832891+00:00,10.980000,-0.031920,
2025-10-15T08:10:46.837891+00:00,10.985000,-0.034200,
2025-10-15T08:10:46.842891+00:00,10.990000,-0.035720,
2025-10-15T08:10:46.847891+00:00,10.995000,-0.032300,
2025-10-15T08:10:46.852891+00:00,11.000000,-0.034200,
2025-10-15T08:10:46.857891+00:00,11.005000,-0.041040,
2025-10-15T08:10:46.862891+00:00,11.010000,-0.037620,
2025-10-15T08:10:46.867891+00:00,11.015000,-0.033820,
2025-10-15T08:10:46.872891+00:00,11.020000,-0.038000,
2025-10-15T08:10:46.877891+00:00,11.025000,-0.036480,
2025-10-15T08:10:46.882891+00:00,11.030000,-0.029260,
2025-10-15T08:10:46.887891+00:00,11.035000,-0.033440,
2025-10-15T08:10:46.892891+00:00,11.040000,-0.036100,
2025-10-15T08:10:46.897891+00:00,11.045000,-0.029260,
2025-10-15T08:10:46.902891+00:00,11.050000,-0.026220,
2025-10-15T08:10:46.907891+00:00,11.055000,-0.028880,
2025-10-15T08:10:46.912891+00:00,11.060000,-0.023940,
2025-10-15T08:10:46.917891+00:00,11.065000,-0.020900,
2025-10-15T08:10:46.922891+00:00,11.070000,-0.028120,
2025-10-15T08:10:46.927891+00:00,11.075000,-0.028500,
2025-10-15T08:10:46.932891+00:00,11.080000,-0.019760,
2025-10-15T08:10:46.937891+00:00,11.085000,-0.021660,
2025-10-15T08:10:46.942891+00:00,11.090000,-0.025840,
2025-10-15T08:10:46.947891+00:00,11.095000,-0.026600,
2025-10-15T08:10:46.952891+00:00,11.100000,-0.031920,
2025-10-15T08:10:46.957891+00:00,11.105000,-0.038380,
2025-10-15T08:10:46.962891+00:00,11.110000,-0.030400,
2025-10-15T08:10:46.967891+00:00,11.115000,-0.023180,
2025-10-15T08:10:46.972891+00:00,11.120000,-0.027740,
2025-10-15T08:10:46.977891+00:00,11.125000,-0.026220,
2025-10-15T08:10:46.982891+00:00,11.130000,-0.018240,
2025-10-15T08:10:46.987891+00:00,11.135000,-0.016720,
2025-10-15T08:10:46.992891+00:00,11.140000,-0.017100,
2025-10-15T08:10:46.997891+00:00,11.145000,-0.012540,
2025-10-15T08:10:47.002891+00:00,11.150000,-0.016720,
2025-10-15T08:10:47.007891+00:00,11.155000,-0.025460,
2025-10-15T08:10:47.012891+00:00,11.160000,-0.022800,
2025-10-15T08:10:47.017891+00:00,11.165000,-0.020140,
2025-10-15T08:10:47.022891+00:00,11.170000,-0.028880,
2025-10-15T08:10:47.027891+00:00,11.175000,-0.031540,
2025-10-15T08:10:47.032891+00:00,11.180000,-0.028880,
2025-10-15T08:10:47.037891+00:00,11.185000,-0.031160,
2025-10-15T08:10:47.042891+00:00,11.190000,-0.036100,
2025-10-15T08:10:47.047891+00:00,11.195000,-0.031160,
2025-10-15T08:10:47.052891+00:00,11.200000,-0.032300,
2025-10-15T08:10:47.057891+00:00,11.205000,-0.039140,
2025-10-15T08:10:47.062891+00:00,11.210000,-0.037620,
2025-10-15T08:10:47.067891+00:00,11.215000,-0.035720,
2025-10-15T08:10:47.072891+00:00,11.220000,-0.040280,
2025-10-15T08:10:47.077891+00:00,11.225000,-0.037240,
2025-10-15T08:10:47.082891+00:00,11.230000,-0.028120,
2025-10-15T08:10:47.087891+00:00,11.235000,-0.031540,
2025-10-15T08:10:47.092891+00:00,11.240000,-0.038000,
2025-10-15T08:10:47.097891+00:00,11.245000,-0.037240,
2025-10-15T08:10:47.102891+00:00,11.250000,-0.039140,
2025-10-15T08:10:47.107891+00:00,11.255000,-0.041040,
2025-10-15T08:10:47.112891+00:00,11.260000,-0.034200,
2025-10-15T08:10:47.117891+00:00,11.265000,-0.029640,
2025-10-15T08:10:47.122891+00:00,11.270000,-0.036100,
2025-10-15T08:10:47.127891+00:00,11.275000,-0.035720,
2025-10-15T08:10:47.132891+00:00,11.280000,-0.032300,
2025-10-15T08:10:47.137891+00:00,11.285000,-0.039900,
2025-10-15T08:10:47.142891+00:00,11.290000,-0.048260,
2025-10-15T08:10:47.147891+00:00,11.295000,-0.044840,
2025-10-15T08:10:47.152891+00:00,11.300000,-0.045220,
2025-10-15T08:10:47.157891+00:00,11.305000,-0.047500,
2025-10-15T08:10:47.162891+00:00,11.310000,-0.041420,
2025-10-15T08:10:47.167891+00:00,11.315000,-0.034960,
2025-10-15T08:10:47.172891+00:00,11.320000,-0.040660,
2025-10-15T08:10:47.177891+00:00,11.325000,-0.039520,
2025-10-15T08:10:47.182891+00:00,11.330000,-0.031920,
2025-10-15T08:10:47.187891+00:00,11.335000,-0.033060,
2025-10-15T08:10:47.192891+00:00,11.340000,-0.035340,
2025-10-15T08:10:47.197891+00:00,11.345000,-0.030780,
2025-10-15T08:10:47.202891+00:00,11.350000,-0.034200,
2025-10-15T08:10:47.207891+00:00,11.355000,-0.044840,
