timestamp_utc,t_rel_sec,ecg_mV,event
2025-11-12T16:45:51.556492+00:00,0.000000,0.000000,
2025-11-12T16:45:51.561492+00:00,0.005000,-0.000380,
2025-11-12T16:45:51.566492+00:00,0.010000,-0.000380,
2025-11-12T16:45:51.571492+00:00,0.015000,-0.000760,
2025-11-12T16:45:51.576492+00:00,0.020000,-0.022040,
2025-11-12T16:45:51.581492+00:00,0.025000,0.026220,
2025-11-12T16:45:51.586492+00:00,0.030000,0.088540,
2025-11-12T16:45:51.591492+00:00,0.035000,-0.311220,
2025-11-12T16:45:51.596492+00:00,0.040000,-0.196460,
2025-11-12T16:45:51.601492+00:00,0.045000,1.333800,
2025-11-12T16:45:51.606492+00:00,0.050000,0.878940,
2025-11-12T16:45:51.611492+00:00,0.055000,-2.859880,
2025-11-12T16:45:51.616492+00:00,0.060000,-2.487100,
2025-11-12T16:45:51.621492+00:00,0.065000,9.248440,
2025-11-12T16:45:51.626492+00:00,0.070000,28.325580,
2025-11-12T16:45:51.631492+00:00,0.075000,42.326680,
2025-11-12T16:45:51.636492+00:00,0.080000,43.769160,
2025-11-12T16:45:51.641492+00:00,0.085000,36.481520,
2025-11-12T16:45:51.646492+00:00,0.090000,28.127600,
2025-11-12T16:45:51.651492+00:00,0.095000,20.850980,
2025-11-12T16:45:51.656492+00:00,0.100000,13.265040,
2025-11-12T16:45:51.661492+00:00,0.105000,7.009480,
2025-11-12T16:45:51.666492+00:00,0.110000,3.553000,
2025-11-12T16:45:51.671492+00:00,0.115000,1.219800,
2025-11-12T16:45:51.676491+00:00,0.120000,-0.841700,
2025-11-12T16:45:51.681492+00:00,0.125000,-2.256820,
2025-11-12T16:45:51.686492+00:00,0.130000,-3.174140,
2025-11-12T16:45:51.691492+00:00,0.135000,-3.828120,
2025-11-12T16:45:51.696492+00:00,0.140000,-4.264740,
2025-11-12T16:45:51.701492+00:00,0.145000,-4.533780,
2025-11-12T16:45:51.706492+00:00,0.150000,-4.687680,
2025-11-12T16:45:51.711492+00:00,0.155000,-4.762920,
2025-11-12T16:45:51.716492+00:00,0.160000,-4.783820,
2025-11-12T16:45:51.721492+00:00,0.165000,-4.763680,
2025-11-12T16:45:51.726492+00:00,0.170000,-4.713520,
2025-11-12T16:45:51.731492+00:00,0.175000,-4.646640,
2025-11-12T16:45:51.736492+00:00,0.180000,-4.569880,
2025-11-12T16:45:51.741492+00:00,0.185000,-4.484760,
2025-11-12T16:45:51.746492+00:00,0.190000,-4.389380,
2025-11-12T16:45:51.751492+00:00,0.195000,-4.285260,
2025-11-12T16:45:51.756492+00:00,0.200000,-4.178100,
2025-11-12T16:45:51.761492+00:00,0.205000,-4.077780,
2025-11-12T16:45:51.766492+00:00,0.210000,-3.985440,
2025-11-12T16:45:51.771492+00:00,0.215000,-3.897660,
2025-11-12T16:45:51.776492+00:00,0.220000,-3.809120,
2025-11-12T16:45:51.781492+00:00,0.225000,-3.716020,
2025-11-12T16:45:51.786492+00:00,0.230000,-3.621020,
2025-11-12T16:45:51.791492+00:00,0.235000,-3.527920,
2025-11-12T16:45:51.796492+00:00,0.240000,-3.436720,
2025-11-12T16:45:51.801491+00:00,0.245000,-3.346660,
2025-11-12T16:45:51.806492+00:00,0.250000,-3.261160,
2025-11-12T16:45:51.811492+00:00,0.255000,-3.177560,
2025-11-12T16:45:51.816492+00:00,0.260000,-3.098140,
2025-11-12T16:45:51.821492+00:00,0.265000,-3.021000,
2025-11-12T16:45:51.826492+00:00,0.270000,-2.946520,
2025-11-12T16:45:51.831492+00:00,0.275000,-2.873180,
2025-11-12T16:45:51.836492+00:00,0.280000,-2.801740,
2025-11-12T16:45:51.841492+00:00,0.285000,-2.730680,
2025-11-12T16:45:51.846492+00:00,0.290000,-2.663420,
2025-11-12T16:45:51.851492+00:00,0.295000,-2.597680,
2025-11-12T16:45:51.856492+00:00,0.300000,-2.529280,
2025-11-12T16:45:51.861492+00:00,0.305000,-2.451000,
2025-11-12T16:45:51.866492+00:00,0.310000,-2.355620,
2025-11-12T16:45:51.871492+00:00,0.315000,-2.255680,
2025-11-12T16:45:51.876492+00:00,0.320000,-2.160300,
2025-11-12T16:45:51.881492+00:00,0.325000,-2.035280,
2025-11-12T16:45:51.886492+00:00,0.330000,-1.865420,
2025-11-12T16:45:51.891492+00:00,0.335000,-1.743440,
2025-11-12T16:45:51.896492+00:00,0.340000,-1.809560,
2025-11-12T16:45:51.901492+00:00,0.345000,-2.060740,
2025-11-12T16:45:51.906492+00:00,0.350000,-2.301280,
2025-11-12T16:45:51.911492+00:00,0.355000,-2.344980,
2025-11-12T16:45:51.916492+00:00,0.360000,-2.202480,
2025-11-12T16:45:51.921492+00:00,0.365000,-2.033760,
2025-11-12T16:45:51.926491+00:00,0.370000,-1.934580,
2025-11-12T16:45:51.931492+00:00,0.375000,-1.876060,
2025-11-12T16:45:51.936492+00:00,0.380000,-1.812980,
2025-11-12T16:45:51.941492+00:00,0.385000,-1.748760,
2025-11-12T16:45:51.946492+00:00,0.390000,-1.696700,
2025-11-12T16:45:51.951492+00:00,0.395000,-1.654140,
2025-11-12T16:45:51.956492+00:00,0.400000,-1.612720,
2025-11-12T16:45:51.961492+00:00,0.405000,-1.571300,
2025-11-12T16:45:51.966492+00:00,0.410000,-1.530260,
2025-11-12T16:45:51.971492+00:00,0.415000,-1.489980,
2025-11-12T16:45:51.976492+00:00,0.420000,-1.452360,
2025-11-12T16:45:51.981492+00:00,0.425000,-1.417020,
2025-11-12T16:45:51.986492+00:00,0.430000,-1.383960,
2025-11-12T16:45:51.991492+00:00,0.435000,-1.350520,
2025-11-12T16:45:51.996492+00:00,0.440000,-1.319360,
2025-11-12T16:45:52.001492+00:00,0.445000,-1.290860,
2025-11-12T16:45:52.006492+00:00,0.450000,-1.263120,
2025-11-12T16:45:52.011492+00:00,0.455000,-1.235000,
2025-11-12T16:45:52.016492+00:00,0.460000,-1.205360,
2025-11-12T16:45:52.021492+00:00,0.465000,-1.177620,
2025-11-12T16:45:52.026492+00:00,0.470000,-1.151020,
2025-11-12T16:45:52.031492+00:00,0.475000,-1.125560,
2025-11-12T16:45:52.036492+00:00,0.480000,-1.098960,
2025-11-12T16:45:52.041492+00:00,0.485000,-1.070460,
2025-11-12T16:45:52.046492+00:00,0.490000,-1.043480,
2025-11-12T16:45:52.051491+00:00,0.495000,-1.017640,
2025-11-12T16:45:52.056492+00:00,0.500000,-0.994460,
2025-11-12T16:45:52.061492+00:00,0.505000,-0.972800,
2025-11-12T16:45:52.066492+00:00,0.510000,-0.950760,
2025-11-12T16:45:52.071492+00:00,0.515000,-0.929480,
2025-11-12T16:45:52.076492+00:00,0.520000,-0.907060,
2025-11-12T16:45:52.081492+00:00,0.525000,-0.880840,
2025-11-12T16:45:52.086492+00:00,0.530000,-0.855760,
2025-11-12T16:45:52.091492+00:00,0.535000,-0.829920,
2025-11-12T16:45:52.096492+00:00,0.540000,-0.804460,
2025-11-12T16:45:52.101492+00:00,0.545000,-0.781280,
2025-11-12T16:45:52.106492+00:00,0.550000,-0.760000,
2025-11-12T16:45:52.111492+00:00,0.555000,-0.739860,
2025-11-12T16:45:52.116492+00:00,0.560000,-0.723900,
2025-11-12T16:45:52.121492+00:00,0.565000,-0.709460,
2025-11-12T16:45:52.126492+00:00,0.570000,-0.698060,
2025-11-12T16:45:52.131492+00:00,0.575000,-0.687420,
2025-11-12T16:45:52.136492+00:00,0.580000,-0.679060,
2025-11-12T16:45:52.141492+00:00,0.585000,-0.673360,
2025-11-12T16:45:52.146492+00:00,0.590000,-0.668800,
2025-11-12T16:45:52.151492+00:00,0.595000,-0.663480,
2025-11-12T16:45:52.156492+00:00,0.600000,-0.659680,
2025-11-12T16:45:52.161492+00:00,0.605000,-0.660820,
2025-11-12T16:45:52.166492+00:00,0.610000,-0.665760,
2025-11-12T16:45:52.171492+00:00,0.615000,-0.672600,
2025-11-12T16:45:52.176491+00:00,0.620000,-0.676780,
2025-11-12T16:45:52.181492+00:00,0.625000,-0.676780,
2025-11-12T16:45:52.186492+00:00,0.630000,-0.672220,
2025-11-12T16:45:52.191492+00:00,0.635000,-0.665760,
2025-11-12T16:45:52.196492+00:00,0.640000,-0.657020,
2025-11-12T16:45:52.201492+00:00,0.645000,-0.640680,
2025-11-12T16:45:52.206492+00:00,0.650000,-0.618260,
2025-11-12T16:45:52.211492+00:00,0.655000,-0.592040,
2025-11-12T16:45:52.216492+00:00,0.660000,-0.568480,
2025-11-12T16:45:52.221492+00:00,0.665000,-0.547960,
2025-11-12T16:45:52.226492+00:00,0.670000,-0.529720,
2025-11-12T16:45:52.231492+00:00,0.675000,-0.513380,
2025-11-12T16:45:52.236492+00:00,0.680000,-0.495900,
2025-11-12T16:45:52.241492+00:00,0.685000,-0.481460,
2025-11-12T16:45:52.246492+00:00,0.690000,-0.465880,
2025-11-12T16:45:52.251492+00:00,0.695000,-0.449540,
2025-11-12T16:45:52.256492+00:00,0.700000,-0.435100,
2025-11-12T16:45:52.261492+00:00,0.705000,-0.422180,
2025-11-12T16:45:52.266492+00:00,0.710000,-0.410020,
2025-11-12T16:45:52.271492+00:00,0.715000,-0.397480,
2025-11-12T16:45:52.276492+00:00,0.720000,-0.383800,
2025-11-12T16:45:52.281492+00:00,0.725000,-0.372020,
2025-11-12T16:45:52.286492+00:00,0.730000,-0.362140,
2025-11-12T16:45:52.291492+00:00,0.735000,-0.354160,
2025-11-12T16:45:52.296492+00:00,0.740000,-0.347700,
2025-11-12T16:45:52.301491+00:00,0.745000,-0.339720,
2025-11-12T16:45:52.306492+00:00,0.750000,-0.331360,
2025-11-12T16:45:52.311492+00:00,0.755000,-0.322240,
2025-11-12T16:45:52.316492+00:00,0.760000,-0.313500,
2025-11-12T16:45:52.321492+00:00,0.765000,-0.306660,
2025-11-12T16:45:52.326492+00:00,0.770000,-0.300200,
2025-11-12T16:45:52.331492+00:00,0.775000,-0.293360,
2025-11-12T16:45:52.336492+00:00,0.780000,-0.286520,
2025-11-12T16:45:52.341492+00:00,0.785000,-0.280440,
2025-11-12T16:45:52.346492+00:00,0.790000,-0.276260,
2025-11-12T16:45:52.351492+00:00,0.795000,-0.271320,
2025-11-12T16:45:52.356492+00:00,0.800000,-0.264480,
2025-11-12T16:45:52.361492+00:00,0.805000,-0.258020,
2025-11-12T16:45:52.366492+00:00,0.810000,-0.253840,
2025-11-12T16:45:52.371492+00:00,0.815000,-0.250800,
2025-11-12T16:45:52.376492+00:00,0.820000,-0.247000,
2025-11-12T16:45:52.381492+00:00,0.825000,-0.242440,
2025-11-12T16:45:52.386492+00:00,0.830000,-0.237120,
2025-11-12T16:45:52.391492+00:00,0.835000,-0.231800,
2025-11-12T16:45:52.396492+00:00,0.840000,-0.226860,
2025-11-12T16:45:52.401492+00:00,0.845000,-0.222680,
2025-11-12T16:45:52.406492+00:00,0.850000,-0.216220,
2025-11-12T16:45:52.411492+00:00,0.855000,-0.210900,
2025-11-12T16:45:52.416492+00:00,0.860000,-0.205580,
2025-11-12T16:45:52.421492+00:00,0.865000,-0.200260,
2025-11-12T16:45:52.426491+00:00,0.870000,-0.196840,
2025-11-12T16:45:52.431492+00:00,0.875000,-0.192280,
2025-11-12T16:45:52.436492+00:00,0.880000,-0.188100,
2025-11-12T16:45:52.441492+00:00,0.885000,-0.184300,
2025-11-12T16:45:52.446492+00:00,0.890000,-0.179740,
2025-11-12T16:45:52.451492+00:00,0.895000,-0.174420,
2025-11-12T16:45:52.456492+00:00,0.900000,-0.170620,
2025-11-12T16:45:52.461492+00:00,0.905000,-0.167960,
2025-11-12T16:45:52.466492+00:00,0.910000,-0.167200,
2025-11-12T16:45:52.471492+00:00,0.915000,-0.163020,
2025-11-12T16:45:52.476492+00:00,0.920000,-0.157320,
2025-11-12T16:45:52.481492+00:00,0.925000,-0.149720,
2025-11-12T16:45:52.486492+00:00,0.930000,-0.145540,
2025-11-12T16:45:52.491492+00:00,0.935000,-0.147060,
2025-11-12T16:45:52.496492+00:00,0.940000,-0.147820,
2025-11-12T16:45:52.501492+00:00,0.945000,-0.145160,
2025-11-12T16:45:52.506492+00:00,0.950000,-0.139840,
2025-11-12T16:45:52.511492+00:00,0.955000,-0.133380,
2025-11-12T16:45:52.516492+00:00,0.960000,-0.128440,
2025-11-12T16:45:52.521492+00:00,0.965000,-0.126160,
2025-11-12T16:45:52.526492+00:00,0.970000,-0.122740,
2025-11-12T16:45:52.531492+00:00,0.975000,-0.118940,
2025-11-12T16:45:52.536492+00:00,0.980000,-0.114760,
2025-11-12T16:45:52.541492+00:00,0.985000,-0.109820,
2025-11-12T16:45:52.546492+00:00,0.990000,-0.101080,
2025-11-12T16:45:52.551491+00:00,0.995000,-0.090440,
2025-11-12T16:45:52.556492+00:00,1.000000,-0.083980,
2025-11-12T16:45:52.561492+00:00,1.005000,-0.083220,
2025-11-12T16:45:52.566492+00:00,1.010000,-0.090060,
2025-11-12T16:45:52.571492+00:00,1.015000,-0.095380,
2025-11-12T16:45:52.576492+00:00,1.020000,-0.095380,
2025-11-12T16:45:52.581492+00:00,1.025000,-0.090060,
2025-11-12T16:45:52.586492+00:00,1.030000,-0.085500,
2025-11-12T16:45:52.591492+00:00,1.035000,-0.083600,
2025-11-12T16:45:52.596492+00:00,1.040000,-0.083980,
2025-11-12T16:45:52.601492+00:00,1.045000,-0.086260,
2025-11-12T16:45:52.606492+00:00,1.050000,-0.090440,
2025-11-12T16:45:52.611492+00:00,1.055000,-0.095000,
2025-11-12T16:45:52.616492+00:00,1.060000,-0.099560,
2025-11-12T16:45:52.621492+00:00,1.065000,-0.100320,
2025-11-12T16:45:52.626492+00:00,1.070000,-0.097660,
2025-11-12T16:45:52.631492+00:00,1.075000,-0.091580,
2025-11-12T16:45:52.636492+00:00,1.080000,-0.085120,
2025-11-12T16:45:52.641492+00:00,1.085000,-0.080560,
2025-11-12T16:45:52.646492+00:00,1.090000,-0.076760,
2025-11-12T16:45:52.651492+00:00,1.095000,-0.072580,
2025-11-12T16:45:52.656492+00:00,1.100000,-0.069540,
2025-11-12T16:45:52.661492+00:00,1.105000,-0.067640,
2025-11-12T16:45:52.666492+00:00,1.110000,-0.064980,
2025-11-12T16:45:52.671492+00:00,1.115000,-0.061940,
2025-11-12T16:45:52.676491+00:00,1.120000,-0.058140,
2025-11-12T16:45:52.681492+00:00,1.125000,-0.058520,
2025-11-12T16:45:52.686492+00:00,1.130000,-0.055480,
2025-11-12T16:45:52.691492+00:00,1.135000,-0.042180,
2025-11-12T16:45:52.696492+00:00,1.140000,-0.012920,
2025-11-12T16:45:52.701492+00:00,1.145000,0.027360,
2025-11-12T16:45:52.706492+00:00,1.150000,0.063840,
2025-11-12T16:45:52.711492+00:00,1.155000,0.112100,
2025-11-12T16:45:52.716492+00:00,1.160000,0.226480,
2025-11-12T16:45:52.721492+00:00,1.165000,0.388360,
2025-11-12T16:45:52.726492+00:00,1.170000,0.436240,
2025-11-12T16:45:52.731492+00:00,1.175000,0.231420,
2025-11-12T16:45:52.736492+00:00,1.180000,-0.141360,
2025-11-12T16:45:52.741492+00:00,1.185000,-0.425980,
2025-11-12T16:45:52.746492+00:00,1.190000,-0.462460,
2025-11-12T16:45:52.751492+00:00,1.195000,-0.332880,
2025-11-12T16:45:52.756492+00:00,1.200000,-0.215460,
2025-11-12T16:45:52.761492+00:00,1.205000,-0.170620,
2025-11-12T16:45:52.766492+00:00,1.210000,-0.150480,
2025-11-12T16:45:52.771492+00:00,1.215000,-0.121220,
2025-11-12T16:45:52.776492+00:00,1.220000,-0.095380,
2025-11-12T16:45:52.781492+00:00,1.225000,-0.078660,
2025-11-12T16:45:52.786492+00:00,1.230000,-0.065740,
2025-11-12T16:45:52.791492+00:00,1.235000,-0.055480,
2025-11-12T16:45:52.796492+00:00,1.240000,-0.047880,
2025-11-12T16:45:52.801491+00:00,1.245000,-0.042560,
2025-11-12T16:45:52.806492+00:00,1.250000,-0.038760,
2025-11-12T16:45:52.811492+00:00,1.255000,-0.034580,
2025-11-12T16:45:52.816492+00:00,1.260000,-0.030780,
2025-11-12T16:45:52.821492+00:00,1.265000,-0.029260,
2025-11-12T16:45:52.826492+00:00,1.270000,-0.026600,
2025-11-12T16:45:52.831492+00:00,1.275000,-0.023180,
2025-11-12T16:45:52.836492+00:00,1.280000,-0.019380,
2025-11-12T16:45:52.841492+00:00,1.285000,-0.018240,
2025-11-12T16:45:52.846492+00:00,1.290000,-0.018620,
2025-11-12T16:45:52.851492+00:00,1.295000,-0.018240,
2025-11-12T16:45:52.856492+00:00,1.300000,-0.019380,
2025-11-12T16:45:52.861492+00:00,1.305000,-0.017480,
2025-11-12T16:45:52.866492+00:00,1.310000,-0.014440,
2025-11-12T16:45:52.871492+00:00,1.315000,-0.011020,
2025-11-12T16:45:52.876492+00:00,1.320000,-0.006840,
2025-11-12T16:45:52.881492+00:00,1.325000,-0.004560,
2025-11-12T16:45:52.886492+00:00,1.330000,-0.004940,
2025-11-12T16:45:52.891492+00:00,1.335000,-0.004560,
2025-11-12T16:45:52.896492+00:00,1.340000,-0.004560,
2025-11-12T16:45:52.901492+00:00,1.345000,-0.000760,
2025-11-12T16:45:52.906492+00:00,1.350000,0.004180,
2025-11-12T16:45:52.911492+00:00,1.355000,0.008740,
2025-11-12T16:45:52.916492+00:00,1.360000,0.013300,
2025-11-12T16:45:52.921492+00:00,1.365000,0.017480,
2025-11-12T16:45:52.926491+00:00,1.370000,0.021280,
2025-11-12T16:45:52.931492+00:00,1.375000,0.025080,
2025-11-12T16:45:52.936492+00:00,1.380000,0.028120,
2025-11-12T16:45:52.941492+00:00,1.385000,0.031160,
2025-11-12T16:45:52.946492+00:00,1.390000,0.034960,
2025-11-12T16:45:52.951492+00:00,1.395000,0.035720,
2025-11-12T16:45:52.956492+00:00,1.400000,0.035720,
2025-11-12T16:45:52.961492+00:00,1.405000,0.031160,
2025-11-12T16:45:52.966492+00:00,1.410000,0.026220,
2025-11-12T16:45:52.971492+00:00,1.415000,0.017480,
2025-11-12T16:45:52.976492+00:00,1.420000,0.008740,
2025-11-12T16:45:52.981492+00:00,1.425000,-0.001140,
2025-11-12T16:45:52.986492+00:00,1.430000,-0.008360,
2025-11-12T16:45:52.991492+00:00,1.435000,-0.019760,
2025-11-12T16:45:52.996492+00:00,1.440000,-0.033820,
2025-11-12T16:45:53.001492+00:00,1.445000,-0.051300,
2025-11-12T16:45:53.006492+00:00,1.450000,-0.066120,
2025-11-12T16:45:53.011492+00:00,1.455000,-0.081700,
2025-11-12T16:45:53.016492+00:00,1.460000,-0.094620,
2025-11-12T16:45:53.021492+00:00,1.465000,-0.103360,
2025-11-12T16:45:53.026492+00:00,1.470000,-0.104120,
2025-11-12T16:45:53.031492+00:00,1.475000,-0.100320,
2025-11-12T16:45:53.036492+00:00,1.480000,-0.092340,
2025-11-12T16:45:53.041492+00:00,1.485000,-0.082840,
2025-11-12T16:45:53.046492+00:00,1.490000,-0.071060,
2025-11-12T16:45:53.051491+00:00,1.495000,-0.063080,
2025-11-12T16:45:53.056492+00:00,1.500000,-0.057380,
2025-11-12T16:45:53.061492+00:00,1.505000,-0.050540,
2025-11-12T16:45:53.066492+00:00,1.510000,-0.043700,
2025-11-12T16:45:53.071492+00:00,1.515000,-0.036860,
2025-11-12T16:45:53.076492+00:00,1.520000,-0.032300,
2025-11-12T16:45:53.081492+00:00,1.525000,-0.026220,
2025-11-12T16:45:53.086492+00:00,1.530000,-0.020900,
2025-11-12T16:45:53.091492+00:00,1.535000,-0.015960,
2025-11-12T16:45:53.096492+00:00,1.540000,-0.014820,
2025-11-12T16:45:53.101492+00:00,1.545000,-0.012920,
2025-11-12T16:45:53.106492+00:00,1.550000,-0.012920,
2025-11-12T16:45:53.111492+00:00,1.555000,-0.010640,
2025-11-12T16:45:53.116492+00:00,1.560000,-0.009500,
2025-11-12T16:45:53.121492+00:00,1.565000,-0.006840,
2025-11-12T16:45:53.126492+00:00,1.570000,-0.004560,
2025-11-12T16:45:53.131492+00:00,1.575000,-0.001900,
2025-11-12T16:45:53.136492+00:00,1.580000,-0.000760,
2025-11-12T16:45:53.141492+00:00,1.585000,-0.002280,
2025-11-12T16:45:53.146492+00:00,1.590000,-0.004180,
2025-11-12T16:45:53.151492+00:00,1.595000,-0.004180,
2025-11-12T16:45:53.156492+00:00,1.600000,-0.001520,
2025-11-12T16:45:53.161492+00:00,1.605000,0.001900,
2025-11-12T16:45:53.166492+00:00,1.610000,0.001140,
2025-11-12T16:45:53.171492+00:00,1.615000,-0.001900,
2025-11-12T16:45:53.176491+00:00,1.620000,-0.004560,
2025-11-12T16:45:53.181492+00:00,1.625000,-0.004940,
2025-11-12T16:45:53.186492+00:00,1.630000,-0.003040,
2025-11-12T16:45:53.191492+00:00,1.635000,-0.000760,
2025-11-12T16:45:53.196492+00:00,1.640000,-0.000760,
2025-11-12T16:45:53.201492+00:00,1.645000,-0.004180,
2025-11-12T16:45:53.206492+00:00,1.650000,-0.007220,
2025-11-12T16:45:53.211492+00:00,1.655000,-0.007980,
2025-11-12T16:45:53.216492+00:00,1.660000,-0.006840,
2025-11-12T16:45:53.221492+00:00,1.665000,-0.005700,
2025-11-12T16:45:53.226492+00:00,1.670000,-0.006080,
2025-11-12T16:45:53.231492+00:00,1.675000,-0.007220,
2025-11-12T16:45:53.236492+00:00,1.680000,-0.007600,
2025-11-12T16:45:53.241492+00:00,1.685000,-0.006840,
2025-11-12T16:45:53.246492+00:00,1.690000,-0.008360,
2025-11-12T16:45:53.251492+00:00,1.695000,-0.009880,
2025-11-12T16:45:53.256492+00:00,1.700000,-0.008360,
2025-11-12T16:45:53.261492+00:00,1.705000,-0.005320,
2025-11-12T16:45:53.266492+00:00,1.710000,-0.003420,
2025-11-12T16:45:53.271492+00:00,1.715000,-0.004180,
2025-11-12T16:45:53.276492+00:00,1.720000,-0.006840,
2025-11-12T16:45:53.281492+00:00,1.725000,-0.006840,
2025-11-12T16:45:53.286492+00:00,1.730000,-0.006460,
2025-11-12T16:45:53.291492+00:00,1.735000,-0.006460,
2025-11-12T16:45:53.296492+00:00,1.740000,-0.009880,
2025-11-12T16:45:53.301491+00:00,1.745000,-0.011020,
2025-11-12T16:45:53.306492+00:00,1.750000,-0.009880,
2025-11-12T16:45:53.311492+00:00,1.755000,-0.004940,
2025-11-12T16:45:53.316492+00:00,1.760000,-0.002660,
2025-11-12T16:45:53.321492+00:00,1.765000,-0.003420,
2025-11-12T16:45:53.326492+00:00,1.770000,-0.006080,
2025-11-12T16:45:53.331492+00:00,1.775000,-0.006080,
2025-11-12T16:45:53.336492+00:00,1.780000,-0.004940,
2025-11-12T16:45:53.341492+00:00,1.785000,-0.004180,
2025-11-12T16:45:53.346492+00:00,1.790000,-0.005320,
2025-11-12T16:45:53.351492+00:00,1.795000,-0.007600,
2025-11-12T16:45:53.356492+00:00,1.800000,-0.007220,
2025-11-12T16:45:53.361492+00:00,1.805000,-0.005320,
2025-11-12T16:45:53.366492+00:00,1.810000,-0.003800,
2025-11-12T16:45:53.371492+00:00,1.815000,-0.003040,
2025-11-12T16:45:53.376492+00:00,1.820000,-0.004940,
2025-11-12T16:45:53.381492+00:00,1.825000,-0.009880,
2025-11-12T16:45:53.386492+00:00,1.830000,-0.012540,
2025-11-12T16:45:53.391492+00:00,1.835000,-0.010260,
2025-11-12T16:45:53.396492+00:00,1.840000,-0.005320,
2025-11-12T16:45:53.401492+00:00,1.845000,0.001520,
2025-11-12T16:45:53.406492+00:00,1.850000,0.008740,
2025-11-12T16:45:53.411492+00:00,1.855000,0.012540,
2025-11-12T16:45:53.416492+00:00,1.860000,0.014820,
2025-11-12T16:45:53.421492+00:00,1.865000,0.012160,
2025-11-12T16:45:53.426491+00:00,1.870000,0.006840,
2025-11-12T16:45:53.431492+00:00,1.875000,0.000380,
2025-11-12T16:45:53.436492+00:00,1.880000,-0.003800,
2025-11-12T16:45:53.441492+00:00,1.885000,-0.002660,
2025-11-12T16:45:53.446492+00:00,1.890000,-0.002280,
2025-11-12T16:45:53.451492+00:00,1.895000,0.000760,
2025-11-12T16:45:53.456492+00:00,1.900000,-0.000760,
2025-11-12T16:45:53.461492+00:00,1.905000,-0.004940,
2025-11-12T16:45:53.466492+00:00,1.910000,-0.013680,
2025-11-12T16:45:53.471492+00:00,1.915000,-0.022800,
2025-11-12T16:45:53.476492+00:00,1.920000,-0.031160,
2025-11-12T16:45:53.481492+00:00,1.925000,-0.032680,
2025-11-12T16:45:53.486492+00:00,1.930000,-0.028880,
2025-11-12T16:45:53.491492+00:00,1.935000,-0.023180,
2025-11-12T16:45:53.496492+00:00,1.940000,-0.020520,
2025-11-12T16:45:53.501492+00:00,1.945000,-0.018620,
2025-11-12T16:45:53.506492+00:00,1.950000,-0.016720,
2025-11-12T16:45:53.511492+00:00,1.955000,-0.012920,
2025-11-12T16:45:53.516492+00:00,1.960000,-0.010260,
2025-11-12T16:45:53.521492+00:00,1.965000,-0.009500,
2025-11-12T16:45:53.526492+00:00,1.970000,-0.011780,
2025-11-12T16:45:53.531492+00:00,1.975000,-0.011780,
2025-11-12T16:45:53.536492+00:00,1.980000,-0.011400,
2025-11-12T16:45:53.541492+00:00,1.985000,-0.010260,
2025-11-12T16:45:53.546492+00:00,1.990000,-0.007600,
2025-11-12T16:45:53.551491+00:00,1.995000,0.001520,
2025-11-12T16:45:53.556492+00:00,2.000000,0.021660,
2025-11-12T16:45:53.561492+00:00,2.005000,0.052060,
2025-11-12T16:45:53.566492+00:00,2.010000,0.080940,
2025-11-12T16:45:53.571492+00:00,2.015000,0.114760,
2025-11-12T16:45:53.576492+00:00,2.020000,0.206340,
2025-11-12T16:45:53.581492+00:00,2.025000,0.378860,
2025-11-12T16:45:53.586492+00:00,2.030000,0.505780,
2025-11-12T16:45:53.591492+00:00,2.035000,0.402040,
2025-11-12T16:45:53.596492+00:00,2.040000,0.055100,
2025-11-12T16:45:53.601492+00:00,2.045000,-0.309320,
2025-11-12T16:45:53.606492+00:00,2.050000,-0.453340,
2025-11-12T16:45:53.611492+00:00,2.055000,-0.370500,
2025-11-12T16:45:53.616492+00:00,2.060000,-0.233320,
2025-11-12T16:45:53.621492+00:00,2.065000,-0.164920,
2025-11-12T16:45:53.626492+00:00,2.070000,-0.142880,
2025-11-12T16:45:53.631492+00:00,2.075000,-0.120840,
2025-11-12T16:45:53.636492+00:00,2.080000,-0.095000,
2025-11-12T16:45:53.641492+00:00,2.085000,-0.074860,
2025-11-12T16:45:53.646492+00:00,2.090000,-0.055480,
2025-11-12T16:45:53.651492+00:00,2.095000,-0.039140,
2025-11-12T16:45:53.656492+00:00,2.100000,-0.029260,
2025-11-12T16:45:53.661492+00:00,2.105000,-0.026600,
2025-11-12T16:45:53.666492+00:00,2.110000,-0.024320,
2025-11-12T16:45:53.671492+00:00,2.115000,-0.019380,
2025-11-12T16:45:53.676491+00:00,2.120000,-0.012920,
2025-11-12T16:45:53.681492+00:00,2.125000,-0.008360,
2025-11-12T16:45:53.686492+00:00,2.130000,-0.006460,
2025-11-12T16:45:53.691492+00:00,2.135000,-0.009500,
2025-11-12T16:45:53.696492+00:00,2.140000,-0.011780,
2025-11-12T16:45:53.701492+00:00,2.145000,-0.009880,
2025-11-12T16:45:53.706492+00:00,2.150000,-0.005700,
2025-11-12T16:45:53.711492+00:00,2.155000,-0.001900,
2025-11-12T16:45:53.716492+00:00,2.160000,-0.004560,
2025-11-12T16:45:53.721492+00:00,2.165000,-0.007220,
2025-11-12T16:45:53.726492+00:00,2.170000,-0.008360,
2025-11-12T16:45:53.731492+00:00,2.175000,-0.004940,
2025-11-12T16:45:53.736492+00:00,2.180000,-0.003040,
2025-11-12T16:45:53.741492+00:00,2.185000,-0.001140,
2025-11-12T16:45:53.746492+00:00,2.190000,-0.001520,
2025-11-12T16:45:53.751492+00:00,2.195000,-0.001520,
2025-11-12T16:45:53.756492+00:00,2.200000,0.000380,
2025-11-12T16:45:53.761492+00:00,2.205000,0.005700,
2025-11-12T16:45:53.766492+00:00,2.210000,0.010260,
2025-11-12T16:45:53.771492+00:00,2.215000,0.013300,
2025-11-12T16:45:53.776492+00:00,2.220000,0.015580,
2025-11-12T16:45:53.781492+00:00,2.225000,0.021660,
2025-11-12T16:45:53.786492+00:00,2.230000,0.028880,
2025-11-12T16:45:53.791492+00:00,2.235000,0.032300,
2025-11-12T16:45:53.796492+00:00,2.240000,0.032300,
2025-11-12T16:45:53.801491+00:00,2.245000,0.033440,
2025-11-12T16:45:53.806492+00:00,2.250000,0.035340,
2025-11-12T16:45:53.811492+00:00,2.255000,0.036100,
2025-11-12T16:45:53.816492+00:00,2.260000,0.036480,
2025-11-12T16:45:53.821492+00:00,2.265000,0.033440,
2025-11-12T16:45:53.826492+00:00,2.270000,0.027360,
2025-11-12T16:45:53.831492+00:00,2.275000,0.014820,
2025-11-12T16:45:53.836492+00:00,2.280000,0.005320,
2025-11-12T16:45:53.841492+00:00,2.285000,-0.001140,
2025-11-12T16:45:53.846492+00:00,2.290000,-0.007600,
2025-11-12T16:45:53.851492+00:00,2.295000,-0.016720,
2025-11-12T16:45:53.856492+00:00,2.300000,-0.028120,
2025-11-12T16:45:53.861492+00:00,2.305000,-0.043700,
2025-11-12T16:45:53.866492+00:00,2.310000,-0.059660,
2025-11-12T16:45:53.871492+00:00,2.315000,-0.077900,
2025-11-12T16:45:53.876492+00:00,2.320000,-0.094620,
2025-11-12T16:45:53.881492+00:00,2.325000,-0.105640,
2025-11-12T16:45:53.886492+00:00,2.330000,-0.106020,
2025-11-12T16:45:53.891492+00:00,2.335000,-0.103360,
2025-11-12T16:45:53.896492+00:00,2.340000,-0.099180,
2025-11-12T16:45:53.901492+00:00,2.345000,-0.094240,
2025-11-12T16:45:53.906492+00:00,2.350000,-0.087780,
2025-11-12T16:45:53.911492+00:00,2.355000,-0.079800,
2025-11-12T16:45:53.916492+00:00,2.360000,-0.071440,
2025-11-12T16:45:53.921492+00:00,2.365000,-0.062320,
2025-11-12T16:45:53.926491+00:00,2.370000,-0.054720,
2025-11-12T16:45:53.931492+00:00,2.375000,-0.048640,
2025-11-12T16:45:53.936492+00:00,2.380000,-0.042940,
2025-11-12T16:45:53.941492+00:00,2.385000,-0.034960,
2025-11-12T16:45:53.946492+00:00,2.390000,-0.027740,
2025-11-12T16:45:53.951492+00:00,2.395000,-0.023560,
2025-11-12T16:45:53.956492+00:00,2.400000,-0.023560,
2025-11-12T16:45:53.961492+00:00,2.405000,-0.023940,
2025-11-12T16:45:53.966492+00:00,2.410000,-0.021280,
2025-11-12T16:45:53.971492+00:00,2.415000,-0.019760,
2025-11-12T16:45:53.976492+00:00,2.420000,-0.019760,
2025-11-12T16:45:53.981492+00:00,2.425000,-0.017860,
2025-11-12T16:45:53.986492+00:00,2.430000,-0.014820,
2025-11-12T16:45:53.991492+00:00,2.435000,-0.011020,
2025-11-12T16:45:53.996492+00:00,2.440000,-0.009120,
2025-11-12T16:45:54.001492+00:00,2.445000,-0.008360,
2025-11-12T16:45:54.006492+00:00,2.450000,-0.011400,
2025-11-12T16:45:54.011492+00:00,2.455000,-0.015200,
2025-11-12T16:45:54.016492+00:00,2.460000,-0.017100,
2025-11-12T16:45:54.021492+00:00,2.465000,-0.014440,
2025-11-12T16:45:54.026492+00:00,2.470000,-0.013680,
2025-11-12T16:45:54.031492+00:00,2.475000,-0.014060,
2025-11-12T16:45:54.036492+00:00,2.480000,-0.016340,
2025-11-12T16:45:54.041492+00:00,2.485000,-0.015960,
2025-11-12T16:45:54.046492+00:00,2.490000,-0.015200,
2025-11-12T16:45:54.051491+00:00,2.495000,-0.015960,
2025-11-12T16:45:54.056492+00:00,2.500000,-0.019760,
2025-11-12T16:45:54.061492+00:00,2.505000,-0.021660,
2025-11-12T16:45:54.066492+00:00,2.510000,-0.023180,
2025-11-12T16:45:54.071492+00:00,2.515000,-0.022040,
2025-11-12T16:45:54.076492+00:00,2.520000,-0.023940,
2025-11-12T16:45:54.081492+00:00,2.525000,-0.024700,
2025-11-12T16:45:54.086492+00:00,2.530000,-0.025460,
2025-11-12T16:45:54.091492+00:00,2.535000,-0.024700,
2025-11-12T16:45:54.096492+00:00,2.540000,-0.023560,
2025-11-12T16:45:54.101492+00:00,2.545000,-0.022800,
2025-11-12T16:45:54.106492+00:00,2.550000,-0.022420,
2025-11-12T16:45:54.111492+00:00,2.555000,-0.022800,
2025-11-12T16:45:54.116492+00:00,2.560000,-0.024700,
2025-11-12T16:45:54.121492+00:00,2.565000,-0.027360,
2025-11-12T16:45:54.126492+00:00,2.570000,-0.029260,
2025-11-12T16:45:54.131492+00:00,2.575000,-0.026980,
2025-11-12T16:45:54.136492+00:00,2.580000,-0.023180,
2025-11-12T16:45:54.141492+00:00,2.585000,-0.021280,
2025-11-12T16:45:54.146492+00:00,2.590000,-0.020900,
2025-11-12T16:45:54.151492+00:00,2.595000,-0.020520,
2025-11-12T16:45:54.156492+00:00,2.600000,-0.021660,
2025-11-12T16:45:54.161492+00:00,2.605000,-0.020900,
2025-11-12T16:45:54.166492+00:00,2.610000,-0.021280,
2025-11-12T16:45:54.171492+00:00,2.615000,-0.023560,
2025-11-12T16:45:54.176491+00:00,2.620000,-0.025840,
2025-11-12T16:45:54.181492+00:00,2.625000,-0.025460,
2025-11-12T16:45:54.186492+00:00,2.630000,-0.025460,
2025-11-12T16:45:54.191492+00:00,2.635000,-0.022420,
2025-11-12T16:45:54.196492+00:00,2.640000,-0.022040,
2025-11-12T16:45:54.201492+00:00,2.645000,-0.022800,
2025-11-12T16:45:54.206492+00:00,2.650000,-0.023560,
2025-11-12T16:45:54.211492+00:00,2.655000,-0.025080,
2025-11-12T16:45:54.216492+00:00,2.660000,-0.025840,
2025-11-12T16:45:54.221492+00:00,2.665000,-0.022420,
2025-11-12T16:45:54.226492+00:00,2.670000,-0.016720,
2025-11-12T16:45:54.231492+00:00,2.675000,-0.010640,
2025-11-12T16:45:54.236492+00:00,2.680000,-0.006840,
2025-11-12T16:45:54.241492+00:00,2.685000,-0.004560,
2025-11-12T16:45:54.246492+00:00,2.690000,-0.005320,
2025-11-12T16:45:54.251492+00:00,2.695000,-0.007980,
2025-11-12T16:45:54.256492+00:00,2.700000,-0.012920,
2025-11-12T16:45:54.261492+00:00,2.705000,-0.016720,
2025-11-12T16:45:54.266492+00:00,2.710000,-0.018240,
2025-11-12T16:45:54.271492+00:00,2.715000,-0.017860,
2025-11-12T16:45:54.276492+00:00,2.720000,-0.017860,
2025-11-12T16:45:54.281492+00:00,2.725000,-0.019760,
2025-11-12T16:45:54.286492+00:00,2.730000,-0.026220,
2025-11-12T16:45:54.291492+00:00,2.735000,-0.034580,
2025-11-12T16:45:54.296492+00:00,2.740000,-0.044080,
2025-11-12T16:45:54.301491+00:00,2.745000,-0.050160,
2025-11-12T16:45:54.306492+00:00,2.750000,-0.050160,
2025-11-12T16:45:54.311492+00:00,2.755000,-0.045980,
2025-11-12T16:45:54.316492+00:00,2.760000,-0.039520,
2025-11-12T16:45:54.321492+00:00,2.765000,-0.033060,
2025-11-12T16:45:54.326492+00:00,2.770000,-0.031160,
2025-11-12T16:45:54.331492+00:00,2.775000,-0.031540,
2025-11-12T16:45:54.336492+00:00,2.780000,-0.032300,
2025-11-12T16:45:54.341492+00:00,2.785000,-0.030020,
2025-11-12T16:45:54.346492+00:00,2.790000,-0.026600,
2025-11-12T16:45:54.351492+00:00,2.795000,-0.022800,
2025-11-12T16:45:54.356492+00:00,2.800000,-0.023940,
2025-11-12T16:45:54.361492+00:00,2.805000,-0.024700,
2025-11-12T16:45:54.366492+00:00,2.810000,-0.024320,
2025-11-12T16:45:54.371492+00:00,2.815000,-0.020140,
2025-11-12T16:45:54.376492+00:00,2.820000,-0.012540,
2025-11-12T16:45:54.381492+00:00,2.825000,0.008360,
2025-11-12T16:45:54.386492+00:00,2.830000,0.044840,
2025-11-12T16:45:54.391492+00:00,2.835000,0.086640,
2025-11-12T16:45:54.396492+00:00,2.840000,0.135660,
2025-11-12T16:45:54.401492+00:00,2.845000,0.228000,
2025-11-12T16:45:54.406492+00:00,2.850000,0.346560,
2025-11-12T16:45:54.411492+00:00,2.855000,0.365180,
2025-11-12T16:45:54.416492+00:00,2.860000,0.174420,
2025-11-12T16:45:54.421492+00:00,2.865000,-0.148960,
2025-11-12T16:45:54.426491+00:00,2.870000,-0.381900,
2025-11-12T16:45:54.431492+00:00,2.875000,-0.394820,
2025-11-12T16:45:54.436492+00:00,2.880000,-0.267520,
2025-11-12T16:45:54.441492+00:00,2.885000,-0.158080,
2025-11-12T16:45:54.446492+00:00,2.890000,-0.117040,
2025-11-12T16:45:54.451492+00:00,2.895000,-0.101080,
2025-11-12T16:45:54.456492+00:00,2.900000,-0.080560,
2025-11-12T16:45:54.461492+00:00,2.905000,-0.064220,
2025-11-12T16:45:54.466492+00:00,2.910000,-0.054720,
2025-11-12T16:45:54.471492+00:00,2.915000,-0.047120,
2025-11-12T16:45:54.476492+00:00,2.920000,-0.042180,
2025-11-12T16:45:54.481492+00:00,2.925000,-0.041040,
2025-11-12T16:45:54.486492+00:00,2.930000,-0.039140,
2025-11-12T16:45:54.491492+00:00,2.935000,-0.034200,
2025-11-12T16:45:54.496492+00:00,2.940000,-0.025840,
2025-11-12T16:45:54.501492+00:00,2.945000,-0.017100,
2025-11-12T16:45:54.506492+00:00,2.950000,-0.012160,
2025-11-12T16:45:54.511492+00:00,2.955000,-0.014060,
2025-11-12T16:45:54.516492+00:00,2.960000,-0.017860,
2025-11-12T16:45:54.521492+00:00,2.965000,-0.020900,
2025-11-12T16:45:54.526492+00:00,2.970000,-0.020520,
2025-11-12T16:45:54.531492+00:00,2.975000,-0.019380,
2025-11-12T16:45:54.536492+00:00,2.980000,-0.017100,
2025-11-12T16:45:54.541492+00:00,2.985000,-0.016340,
2025-11-12T16:45:54.546492+00:00,2.990000,-0.015580,
2025-11-12T16:45:54.551491+00:00,2.995000,-0.015580,
2025-11-12T16:45:54.556492+00:00,3.000000,-0.015200,
2025-11-12T16:45:54.561492+00:00,3.005000,-0.011400,
2025-11-12T16:45:54.566492+00:00,3.010000,-0.006460,
2025-11-12T16:45:54.571492+00:00,3.015000,-0.003420,
2025-11-12T16:45:54.576492+00:00,3.020000,-0.001900,
2025-11-12T16:45:54.581492+00:00,3.025000,-0.002280,
2025-11-12T16:45:54.586492+00:00,3.030000,-0.000380,
2025-11-12T16:45:54.591492+00:00,3.035000,0.003420,
2025-11-12T16:45:54.596492+00:00,3.040000,0.008360,
2025-11-12T16:45:54.601492+00:00,3.045000,0.012160,
2025-11-12T16:45:54.606492+00:00,3.050000,0.014440,
2025-11-12T16:45:54.611492+00:00,3.055000,0.017860,
2025-11-12T16:45:54.616492+00:00,3.060000,0.021280,
2025-11-12T16:45:54.621492+00:00,3.065000,0.026600,
2025-11-12T16:45:54.626492+00:00,3.070000,0.028120,
2025-11-12T16:45:54.631492+00:00,3.075000,0.026980,
2025-11-12T16:45:54.636492+00:00,3.080000,0.025840,
2025-11-12T16:45:54.641492+00:00,3.085000,0.023180,
2025-11-12T16:45:54.646492+00:00,3.090000,0.018620,
2025-11-12T16:45:54.651492+00:00,3.095000,0.011780,
2025-11-12T16:45:54.656492+00:00,3.100000,0.003040,
2025-11-12T16:45:54.661492+00:00,3.105000,-0.006460,
2025-11-12T16:45:54.666492+00:00,3.110000,-0.014820,
2025-11-12T16:45:54.671492+00:00,3.115000,-0.022420,
2025-11-12T16:45:54.676491+00:00,3.120000,-0.031540,
2025-11-12T16:45:54.681492+00:00,3.125000,-0.045600,
2025-11-12T16:45:54.686492+00:00,3.130000,-0.065740,
2025-11-12T16:45:54.691492+00:00,3.135000,-0.085120,
2025-11-12T16:45:54.696492+00:00,3.140000,-0.098800,
2025-11-12T16:45:54.701492+00:00,3.145000,-0.108680,
2025-11-12T16:45:54.706492+00:00,3.150000,-0.117420,
2025-11-12T16:45:54.711492+00:00,3.155000,-0.123880,
2025-11-12T16:45:54.716492+00:00,3.160000,-0.123880,
2025-11-12T16:45:54.721492+00:00,3.165000,-0.117040,
2025-11-12T16:45:54.726492+00:00,3.170000,-0.106780,
2025-11-12T16:45:54.731492+00:00,3.175000,-0.095000,
2025-11-12T16:45:54.736492+00:00,3.180000,-0.085120,
2025-11-12T16:45:54.741492+00:00,3.185000,-0.074480,
2025-11-12T16:45:54.746492+00:00,3.190000,-0.065360,
2025-11-12T16:45:54.751492+00:00,3.195000,-0.058140,
2025-11-12T16:45:54.756492+00:00,3.200000,-0.052820,
2025-11-12T16:45:54.761492+00:00,3.205000,-0.046360,
2025-11-12T16:45:54.766492+00:00,3.210000,-0.039900,
2025-11-12T16:45:54.771492+00:00,3.215000,-0.034960,
2025-11-12T16:45:54.776492+00:00,3.220000,-0.033060,
2025-11-12T16:45:54.781492+00:00,3.225000,-0.032680,
2025-11-12T16:45:54.786492+00:00,3.230000,-0.031920,
2025-11-12T16:45:54.791492+00:00,3.235000,-0.026600,
2025-11-12T16:45:54.796492+00:00,3.240000,-0.022420,
2025-11-12T16:45:54.801491+00:00,3.245000,-0.021660,
2025-11-12T16:45:54.806492+00:00,3.250000,-0.022420,
2025-11-12T16:45:54.811492+00:00,3.255000,-0.023560,
2025-11-12T16:45:54.816492+00:00,3.260000,-0.023180,
2025-11-12T16:45:54.821492+00:00,3.265000,-0.022040,
2025-11-12T16:45:54.826492+00:00,3.270000,-0.018620,
2025-11-12T16:45:54.831492+00:00,3.275000,-0.015960,
2025-11-12T16:45:54.836492+00:00,3.280000,-0.015200,
2025-11-12T16:45:54.841492+00:00,3.285000,-0.018240,
2025-11-12T16:45:54.846492+00:00,3.290000,-0.020520,
2025-11-12T16:45:54.851492+00:00,3.295000,-0.022040,
2025-11-12T16:45:54.856492+00:00,3.300000,-0.020140,
2025-11-12T16:45:54.861492+00:00,3.305000,-0.020900,
2025-11-12T16:45:54.866492+00:00,3.310000,-0.023560,
2025-11-12T16:45:54.871492+00:00,3.315000,-0.025840,
2025-11-12T16:45:54.876492+00:00,3.320000,-0.025840,
2025-11-12T16:45:54.881492+00:00,3.325000,-0.025460,
2025-11-12T16:45:54.886492+00:00,3.330000,-0.025460,
2025-11-12T16:45:54.891492+00:00,3.335000,-0.026220,
2025-11-12T16:45:54.896492+00:00,3.340000,-0.026220,
2025-11-12T16:45:54.901492+00:00,3.345000,-0.025460,
2025-11-12T16:45:54.906492+00:00,3.350000,-0.026220,
2025-11-12T16:45:54.911492+00:00,3.355000,-0.026980,
2025-11-12T16:45:54.916492+00:00,3.360000,-0.028500,
2025-11-12T16:45:54.921492+00:00,3.365000,-0.031540,
2025-11-12T16:45:54.926491+00:00,3.370000,-0.034200,
2025-11-12T16:45:54.931492+00:00,3.375000,-0.032300,
2025-11-12T16:45:54.936492+00:00,3.380000,-0.028880,
2025-11-12T16:45:54.941492+00:00,3.385000,-0.026600,
2025-11-12T16:45:54.946492+00:00,3.390000,-0.026600,
2025-11-12T16:45:54.951492+00:00,3.395000,-0.027740,
2025-11-12T16:45:54.956492+00:00,3.400000,-0.028880,
2025-11-12T16:45:54.961492+00:00,3.405000,-0.028880,
2025-11-12T16:45:54.966492+00:00,3.410000,-0.027740,
2025-11-12T16:45:54.971492+00:00,3.415000,-0.026980,
2025-11-12T16:45:54.976492+00:00,3.420000,-0.025460,
2025-11-12T16:45:54.981492+00:00,3.425000,-0.024700,
2025-11-12T16:45:54.986492+00:00,3.430000,-0.024700,
2025-11-12T16:45:54.991492+00:00,3.435000,-0.026600,
2025-11-12T16:45:54.996492+00:00,3.440000,-0.028500,
2025-11-12T16:45:55.001492+00:00,3.445000,-0.031160,
2025-11-12T16:45:55.006492+00:00,3.450000,-0.031160,
2025-11-12T16:45:55.011492+00:00,3.455000,-0.028880,
2025-11-12T16:45:55.016492+00:00,3.460000,-0.025840,
2025-11-12T16:45:55.021492+00:00,3.465000,-0.023560,
2025-11-12T16:45:55.026492+00:00,3.470000,-0.023560,
2025-11-12T16:45:55.031492+00:00,3.475000,-0.023560,
2025-11-12T16:45:55.036492+00:00,3.480000,-0.024700,
2025-11-12T16:45:55.041492+00:00,3.485000,-0.026600,
2025-11-12T16:45:55.046492+00:00,3.490000,-0.029640,
2025-11-12T16:45:55.051491+00:00,3.495000,-0.031920,
2025-11-12T16:45:55.056492+00:00,3.500000,-0.031160,
2025-11-12T16:45:55.061492+00:00,3.505000,-0.025080,
2025-11-12T16:45:55.066492+00:00,3.510000,-0.016340,
2025-11-12T16:45:55.071492+00:00,3.515000,-0.007980,
2025-11-12T16:45:55.076492+00:00,3.520000,-0.003800,
2025-11-12T16:45:55.081492+00:00,3.525000,-0.004940,
2025-11-12T16:45:55.086492+00:00,3.530000,-0.010640,
2025-11-12T16:45:55.091492+00:00,3.535000,-0.017480,
2025-11-12T16:45:55.096492+00:00,3.540000,-0.021280,
2025-11-12T16:45:55.101492+00:00,3.545000,-0.022420,
2025-11-12T16:45:55.106492+00:00,3.550000,-0.020520,
2025-11-12T16:45:55.111492+00:00,3.555000,-0.018240,
2025-11-12T16:45:55.116492+00:00,3.560000,-0.019000,
2025-11-12T16:45:55.121492+00:00,3.565000,-0.021280,
2025-11-12T16:45:55.126492+00:00,3.570000,-0.028500,
2025-11-12T16:45:55.131492+00:00,3.575000,-0.038380,
2025-11-12T16:45:55.136492+00:00,3.580000,-0.047500,
2025-11-12T16:45:55.141492+00:00,3.585000,-0.053580,
2025-11-12T16:45:55.146492+00:00,3.590000,-0.054720,
2025-11-12T16:45:55.151492+00:00,3.595000,-0.049780,
2025-11-12T16:45:55.156492+00:00,3.600000,-0.041420,
2025-11-12T16:45:55.161492+00:00,3.605000,-0.035340,
2025-11-12T16:45:55.166492+00:00,3.610000,-0.033060,
2025-11-12T16:45:55.171492+00:00,3.615000,-0.034200,
2025-11-12T16:45:55.176491+00:00,3.620000,-0.034960,
2025-11-12T16:45:55.181492+00:00,3.625000,-0.031920,
2025-11-12T16:45:55.186492+00:00,3.630000,-0.029640,
2025-11-12T16:45:55.191492+00:00,3.635000,-0.028120,
2025-11-12T16:45:55.196492+00:00,3.640000,-0.028880,
2025-11-12T16:45:55.201492+00:00,3.645000,-0.027740,
2025-11-12T16:45:55.206492+00:00,3.650000,-0.025460,
2025-11-12T16:45:55.211492+00:00,3.655000,-0.017480,
2025-11-12T16:45:55.216492+00:00,3.660000,0.001900,
2025-11-12T16:45:55.221492+00:00,3.665000,0.036100,
2025-11-12T16:45:55.226492+00:00,3.670000,0.070680,
2025-11-12T16:45:55.231492+00:00,3.675000,0.098040,
2025-11-12T16:45:55.236492+00:00,3.680000,0.167580,
2025-11-12T16:45:55.241492+00:00,3.685000,0.324140,
2025-11-12T16:45:55.246492+00:00,3.690000,0.471580,
2025-11-12T16:45:55.251492+00:00,3.695000,0.413440,
2025-11-12T16:45:55.256492+00:00,3.700000,0.093100,
2025-11-12T16:45:55.261492+00:00,3.705000,-0.289560,
2025-11-12T16:45:55.266492+00:00,3.710000,-0.474620,
2025-11-12T16:45:55.271492+00:00,3.715000,-0.413060,
2025-11-12T16:45:55.276492+00:00,3.720000,-0.268660,
2025-11-12T16:45:55.281492+00:00,3.725000,-0.182780,
2025-11-12T16:45:55.286492+00:00,3.730000,-0.158080,
2025-11-12T16:45:55.291492+00:00,3.735000,-0.134520,
2025-11-12T16:45:55.296492+00:00,3.740000,-0.104500,
2025-11-12T16:45:55.301491+00:00,3.745000,-0.082840,
2025-11-12T16:45:55.306492+00:00,3.750000,-0.066880,
2025-11-12T16:45:55.311492+00:00,3.755000,-0.054720,
2025-11-12T16:45:55.316492+00:00,3.760000,-0.045600,
2025-11-12T16:45:55.321492+00:00,3.765000,-0.041040,
2025-11-12T16:45:55.326492+00:00,3.770000,-0.035340,
2025-11-12T16:45:55.331492+00:00,3.775000,-0.030020,
2025-11-12T16:45:55.336492+00:00,3.780000,-0.026600,
2025-11-12T16:45:55.341492+00:00,3.785000,-0.026600,
2025-11-12T16:45:55.346492+00:00,3.790000,-0.030780,
2025-11-12T16:45:55.351492+00:00,3.795000,-0.033440,
2025-11-12T16:45:55.356492+00:00,3.800000,-0.030780,
2025-11-12T16:45:55.361492+00:00,3.805000,-0.025080,
2025-11-12T16:45:55.366492+00:00,3.810000,-0.020520,
2025-11-12T16:45:55.371492+00:00,3.815000,-0.017860,
2025-11-12T16:45:55.376492+00:00,3.820000,-0.015960,
2025-11-12T16:45:55.381492+00:00,3.825000,-0.015960,
2025-11-12T16:45:55.386492+00:00,3.830000,-0.017100,
2025-11-12T16:45:55.391492+00:00,3.835000,-0.019000,
2025-11-12T16:45:55.396492+00:00,3.840000,-0.019380,
2025-11-12T16:45:55.401492+00:00,3.845000,-0.015960,
2025-11-12T16:45:55.406492+00:00,3.850000,-0.013300,
2025-11-12T16:45:55.411492+00:00,3.855000,-0.014060,
2025-11-12T16:45:55.416492+00:00,3.860000,-0.016720,
2025-11-12T16:45:55.421492+00:00,3.865000,-0.014440,
2025-11-12T16:45:55.426491+00:00,3.870000,-0.006080,
2025-11-12T16:45:55.431492+00:00,3.875000,0.002280,
2025-11-12T16:45:55.436492+00:00,3.880000,0.007220,
2025-11-12T16:45:55.441492+00:00,3.885000,0.007980,
2025-11-12T16:45:55.446492+00:00,3.890000,0.006840,
2025-11-12T16:45:55.451492+00:00,3.895000,0.005700,
2025-11-12T16:45:55.456492+00:00,3.900000,0.007980,
2025-11-12T16:45:55.461492+00:00,3.905000,0.014440,
2025-11-12T16:45:55.466492+00:00,3.910000,0.021660,
2025-11-12T16:45:55.471492+00:00,3.915000,0.025460,
2025-11-12T16:45:55.476492+00:00,3.920000,0.022800,
2025-11-12T16:45:55.481492+00:00,3.925000,0.014820,
2025-11-12T16:45:55.486492+00:00,3.930000,0.006460,
2025-11-12T16:45:55.491492+00:00,3.935000,-0.001520,
2025-11-12T16:45:55.496492+00:00,3.940000,-0.006840,
2025-11-12T16:45:55.501492+00:00,3.945000,-0.013680,
2025-11-12T16:45:55.506492+00:00,3.950000,-0.022420,
2025-11-12T16:45:55.511492+00:00,3.955000,-0.033820,
2025-11-12T16:45:55.516492+00:00,3.960000,-0.046740,
2025-11-12T16:45:55.521492+00:00,3.965000,-0.060040,
2025-11-12T16:45:55.526492+00:00,3.970000,-0.076000,
2025-11-12T16:45:55.531492+00:00,3.975000,-0.092340,
2025-11-12T16:45:55.536492+00:00,3.980000,-0.107920,
2025-11-12T16:45:55.541492+00:00,3.985000,-0.114380,
2025-11-12T16:45:55.546492+00:00,3.990000,-0.115140,
2025-11-12T16:45:55.551491+00:00,3.995000,-0.115900,
2025-11-12T16:45:55.556492+00:00,4.000000,-0.116280,
2025-11-12T16:45:55.561492+00:00,4.005000,-0.110960,
2025-11-12T16:45:55.566492+00:00,4.010000,-0.099560,
2025-11-12T16:45:55.571492+00:00,4.015000,-0.086260,
2025-11-12T16:45:55.576492+00:00,4.020000,-0.075620,
2025-11-12T16:45:55.581492+00:00,4.025000,-0.068400,
2025-11-12T16:45:55.586492+00:00,4.030000,-0.063840,
2025-11-12T16:45:55.591492+00:00,4.035000,-0.060420,
2025-11-12T16:45:55.596492+00:00,4.040000,-0.056240,
2025-11-12T16:45:55.601492+00:00,4.045000,-0.050920,
2025-11-12T16:45:55.606492+00:00,4.050000,-0.045980,
2025-11-12T16:45:55.611492+00:00,4.055000,-0.041800,
2025-11-12T16:45:55.616492+00:00,4.060000,-0.038760,
2025-11-12T16:45:55.621492+00:00,4.065000,-0.037240,
2025-11-12T16:45:55.626492+00:00,4.070000,-0.036480,
2025-11-12T16:45:55.631492+00:00,4.075000,-0.034580,
2025-11-12T16:45:55.636492+00:00,4.080000,-0.033440,
2025-11-12T16:45:55.641492+00:00,4.085000,-0.031160,
2025-11-12T16:45:55.646492+00:00,4.090000,-0.028120,
2025-11-12T16:45:55.651492+00:00,4.095000,-0.026220,
2025-11-12T16:45:55.656492+00:00,4.100000,-0.025840,
2025-11-12T16:45:55.661492+00:00,4.105000,-0.028500,
2025-11-12T16:45:55.666492+00:00,4.110000,-0.029640,
2025-11-12T16:45:55.671492+00:00,4.115000,-0.027740,
2025-11-12T16:45:55.676491+00:00,4.120000,-0.022800,
2025-11-12T16:45:55.681492+00:00,4.125000,-0.020140,
2025-11-12T16:45:55.686492+00:00,4.130000,-0.022040,
2025-11-12T16:45:55.691492+00:00,4.135000,-0.026980,
2025-11-12T16:45:55.696492+00:00,4.140000,-0.029640,
2025-11-12T16:45:55.701492+00:00,4.145000,-0.030020,
2025-11-12T16:45:55.706492+00:00,4.150000,-0.030020,
2025-11-12T16:45:55.711492+00:00,4.155000,-0.026600,
2025-11-12T16:45:55.716492+00:00,4.160000,-0.025460,
2025-11-12T16:45:55.721492+00:00,4.165000,-0.027360,
2025-11-12T16:45:55.726492+00:00,4.170000,-0.031160,
2025-11-12T16:45:55.731492+00:00,4.175000,-0.033820,
2025-11-12T16:45:55.736492+00:00,4.180000,-0.032680,
2025-11-12T16:45:55.741492+00:00,4.185000,-0.028500,
2025-11-12T16:45:55.746492+00:00,4.190000,-0.025840,
2025-11-12T16:45:55.751492+00:00,4.195000,-0.027360,
2025-11-12T16:45:55.756492+00:00,4.200000,-0.031160,
2025-11-12T16:45:55.761492+00:00,4.205000,-0.031540,
2025-11-12T16:45:55.766492+00:00,4.210000,-0.032680,
2025-11-12T16:45:55.771492+00:00,4.215000,-0.029260,
2025-11-12T16:45:55.776492+00:00,4.220000,-0.028500,
2025-11-12T16:45:55.781492+00:00,4.225000,-0.028880,
2025-11-12T16:45:55.786492+00:00,4.230000,-0.031920,
2025-11-12T16:45:55.791492+00:00,4.235000,-0.033060,
2025-11-12T16:45:55.796492+00:00,4.240000,-0.030780,
2025-11-12T16:45:55.801491+00:00,4.245000,-0.028880,
2025-11-12T16:45:55.806492+00:00,4.250000,-0.028500,
2025-11-12T16:45:55.811492+00:00,4.255000,-0.028880,
2025-11-12T16:45:55.816492+00:00,4.260000,-0.028880,
2025-11-12T16:45:55.821492+00:00,4.265000,-0.031920,
2025-11-12T16:45:55.826492+00:00,4.270000,-0.038000,
2025-11-12T16:45:55.831492+00:00,4.275000,-0.039520,
2025-11-12T16:45:55.836492+00:00,4.280000,-0.033820,
2025-11-12T16:45:55.841492+00:00,4.285000,-0.025460,
2025-11-12T16:45:55.846492+00:00,4.290000,-0.019760,
2025-11-12T16:45:55.851492+00:00,4.295000,-0.016720,
2025-11-12T16:45:55.856492+00:00,4.300000,-0.012540,
2025-11-12T16:45:55.861492+00:00,4.305000,-0.009120,
2025-11-12T16:45:55.866492+00:00,4.310000,-0.010640,
2025-11-12T16:45:55.871492+00:00,4.315000,-0.016340,
2025-11-12T16:45:55.876492+00:00,4.320000,-0.022040,
2025-11-12T16:45:55.881492+00:00,4.325000,-0.026220,
2025-11-12T16:45:55.886492+00:00,4.330000,-0.028500,
2025-11-12T16:45:55.891492+00:00,4.335000,-0.027740,
2025-11-12T16:45:55.896492+00:00,4.340000,-0.026600,
2025-11-12T16:45:55.901492+00:00,4.345000,-0.030020,
2025-11-12T16:45:55.906492+00:00,4.350000,-0.036860,
2025-11-12T16:45:55.911492+00:00,4.355000,-0.044460,
2025-11-12T16:45:55.916492+00:00,4.360000,-0.048640,
2025-11-12T16:45:55.921492+00:00,4.365000,-0.048640,
2025-11-12T16:45:55.926491+00:00,4.370000,-0.045980,
2025-11-12T16:45:55.931492+00:00,4.375000,-0.044460,
2025-11-12T16:45:55.936492+00:00,4.380000,-0.041420,
2025-11-12T16:45:55.941492+00:00,4.385000,-0.040660,
2025-11-12T16:45:55.946492+00:00,4.390000,-0.040280,
2025-11-12T16:45:55.951492+00:00,4.395000,-0.038380,
2025-11-12T16:45:55.956492+00:00,4.400000,-0.036480,
2025-11-12T16:45:55.961492+00:00,4.405000,-0.034200,
2025-11-12T16:45:55.966492+00:00,4.410000,-0.031540,
2025-11-12T16:45:55.971492+00:00,4.415000,-0.030020,
2025-11-12T16:45:55.976492+00:00,4.420000,-0.028500,
2025-11-12T16:45:55.981492+00:00,4.425000,-0.028120,
2025-11-12T16:45:55.986492+00:00,4.430000,-0.028880,
2025-11-12T16:45:55.991492+00:00,4.435000,-0.026220,
2025-11-12T16:45:55.996492+00:00,4.440000,-0.012160,
2025-11-12T16:45:56.001492+00:00,4.445000,0.022040,
2025-11-12T16:45:56.006492+00:00,4.450000,0.068400,
2025-11-12T16:45:56.011492+00:00,4.455000,0.109440,
2025-11-12T16:45:56.016492+00:00,4.460000,0.162640,
2025-11-12T16:45:56.021492+00:00,4.465000,0.261820,
2025-11-12T16:45:56.026492+00:00,4.470000,0.348080,
2025-11-12T16:45:56.031492+00:00,4.475000,0.279300,
2025-11-12T16:45:56.036492+00:00,4.480000,0.014060,
2025-11-12T16:45:56.041492+00:00,4.485000,-0.288800,
2025-11-12T16:45:56.046492+00:00,4.490000,-0.422940,
2025-11-12T16:45:56.051491+00:00,4.495000,-0.348840,
2025-11-12T16:45:56.056492+00:00,4.500000,-0.210520,
2025-11-12T16:45:56.061492+00:00,4.505000,-0.130720,
2025-11-12T16:45:56.066492+00:00,4.510000,-0.107160,
2025-11-12T16:45:56.071492+00:00,4.515000,-0.088160,
2025-11-12T16:45:56.076492+00:00,4.520000,-0.069920,
2025-11-12T16:45:56.081492+00:00,4.525000,-0.057760,
2025-11-12T16:45:56.086492+00:00,4.530000,-0.049020,
2025-11-12T16:45:56.091492+00:00,4.535000,-0.040660,
2025-11-12T16:45:56.096492+00:00,4.540000,-0.035720,
2025-11-12T16:45:56.101492+00:00,4.545000,-0.032680,
2025-11-12T16:45:56.106492+00:00,4.550000,-0.032300,
2025-11-12T16:45:56.111492+00:00,4.555000,-0.030780,
2025-11-12T16:45:56.116492+00:00,4.560000,-0.030400,
2025-11-12T16:45:56.121492+00:00,4.565000,-0.028120,
2025-11-12T16:45:56.126492+00:00,4.570000,-0.026600,
2025-11-12T16:45:56.131492+00:00,4.575000,-0.024320,
2025-11-12T16:45:56.136492+00:00,4.580000,-0.023180,
2025-11-12T16:45:56.141492+00:00,4.585000,-0.022040,
2025-11-12T16:45:56.146492+00:00,4.590000,-0.020900,
2025-11-12T16:45:56.151492+00:00,4.595000,-0.019000,
2025-11-12T16:45:56.156492+00:00,4.600000,-0.017480,
2025-11-12T16:45:56.161492+00:00,4.605000,-0.015580,
2025-11-12T16:45:56.166492+00:00,4.610000,-0.014060,
2025-11-12T16:45:56.171492+00:00,4.615000,-0.014820,
2025-11-12T16:45:56.176491+00:00,4.620000,-0.015960,
2025-11-12T16:45:56.181492+00:00,4.625000,-0.015960,
2025-11-12T16:45:56.186492+00:00,4.630000,-0.013300,
2025-11-12T16:45:56.191492+00:00,4.635000,-0.010640,
2025-11-12T16:45:56.196492+00:00,4.640000,-0.009880,
2025-11-12T16:45:56.201492+00:00,4.645000,-0.011020,
2025-11-12T16:45:56.206492+00:00,4.650000,-0.009120,
2025-11-12T16:45:56.211492+00:00,4.655000,-0.004940,
2025-11-12T16:45:56.216492+00:00,4.660000,0.001520,
2025-11-12T16:45:56.221492+00:00,4.665000,0.006460,
2025-11-12T16:45:56.226492+00:00,4.670000,0.010260,
2025-11-12T16:45:56.231492+00:00,4.675000,0.012920,
2025-11-12T16:45:56.236492+00:00,4.680000,0.016340,
2025-11-12T16:45:56.241492+00:00,4.685000,0.020520,
2025-11-12T16:45:56.246492+00:00,4.690000,0.024320,
2025-11-12T16:45:56.251492+00:00,4.695000,0.026600,
2025-11-12T16:45:56.256492+00:00,4.700000,0.023940,
2025-11-12T16:45:56.261492+00:00,4.705000,0.017480,
2025-11-12T16:45:56.266492+00:00,4.710000,0.009500,
2025-11-12T16:45:56.271492+00:00,4.715000,0.002280,
2025-11-12T16:45:56.276492+00:00,4.720000,-0.003040,
2025-11-12T16:45:56.281492+00:00,4.725000,-0.008740,
2025-11-12T16:45:56.286492+00:00,4.730000,-0.020900,
2025-11-12T16:45:56.291492+00:00,4.735000,-0.035720,
2025-11-12T16:45:56.296492+00:00,4.740000,-0.052440,
2025-11-12T16:45:56.301491+00:00,4.745000,-0.071820,
2025-11-12T16:45:56.306492+00:00,4.750000,-0.091200,
2025-11-12T16:45:56.311492+00:00,4.755000,-0.108300,
2025-11-12T16:45:56.316492+00:00,4.760000,-0.121220,
2025-11-12T16:45:56.321492+00:00,4.765000,-0.127680,
2025-11-12T16:45:56.326492+00:00,4.770000,-0.126920,
2025-11-12T16:45:56.331492+00:00,4.775000,-0.125400,
2025-11-12T16:45:56.336492+00:00,4.780000,-0.121220,
2025-11-12T16:45:56.341492+00:00,4.785000,-0.116280,
2025-11-12T16:45:56.346492+00:00,4.790000,-0.106780,
2025-11-12T16:45:56.351492+00:00,4.795000,-0.095000,
2025-11-12T16:45:56.356492+00:00,4.800000,-0.080560,
2025-11-12T16:45:56.361492+00:00,4.805000,-0.071440,
2025-11-12T16:45:56.366492+00:00,4.810000,-0.066500,
2025-11-12T16:45:56.371492+00:00,4.815000,-0.063460,
2025-11-12T16:45:56.376492+00:00,4.820000,-0.059660,
2025-11-12T16:45:56.381492+00:00,4.825000,-0.053580,
2025-11-12T16:45:56.386492+00:00,4.830000,-0.046740,
2025-11-12T16:45:56.391492+00:00,4.835000,-0.041800,
2025-11-12T16:45:56.396492+00:00,4.840000,-0.037620,
2025-11-12T16:45:56.401492+00:00,4.845000,-0.035340,
2025-11-12T16:45:56.406492+00:00,4.850000,-0.033440,
2025-11-12T16:45:56.411492+00:00,4.855000,-0.031540,
2025-11-12T16:45:56.416492+00:00,4.860000,-0.028500,
2025-11-12T16:45:56.421492+00:00,4.865000,-0.026600,
2025-11-12T16:45:56.426491+00:00,4.870000,-0.026220,
2025-11-12T16:45:56.431492+00:00,4.875000,-0.023180,
2025-11-12T16:45:56.436492+00:00,4.880000,-0.020900,
2025-11-12T16:45:56.441492+00:00,4.885000,-0.022420,
2025-11-12T16:45:56.446492+00:00,4.890000,-0.026220,
2025-11-12T16:45:56.451492+00:00,4.895000,-0.028120,
2025-11-12T16:45:56.456492+00:00,4.900000,-0.025840,
2025-11-12T16:45:56.461492+00:00,4.905000,-0.020520,
2025-11-12T16:45:56.466492+00:00,4.910000,-0.017100,
2025-11-12T16:45:56.471492+00:00,4.915000,-0.017480,
2025-11-12T16:45:56.476492+00:00,4.920000,-0.020140,
2025-11-12T16:45:56.481492+00:00,4.925000,-0.023940,
2025-11-12T16:45:56.486492+00:00,4.930000,-0.026980,
2025-11-12T16:45:56.491492+00:00,4.935000,-0.029640,
2025-11-12T16:45:56.496492+00:00,4.940000,-0.033820,
2025-11-12T16:45:56.501492+00:00,4.945000,-0.037240,
2025-11-12T16:45:56.506492+00:00,4.950000,-0.035340,
2025-11-12T16:45:56.511492+00:00,4.955000,-0.031540,
2025-11-12T16:45:56.516492+00:00,4.960000,-0.028500,
2025-11-12T16:45:56.521492+00:00,4.965000,-0.030020,
2025-11-12T16:45:56.526492+00:00,4.970000,-0.033820,
2025-11-12T16:45:56.531492+00:00,4.975000,-0.037240,
2025-11-12T16:45:56.536492+00:00,4.980000,-0.036860,
2025-11-12T16:45:56.541492+00:00,4.985000,-0.034960,
2025-11-12T16:45:56.546492+00:00,4.990000,-0.033060,
2025-11-12T16:45:56.551491+00:00,4.995000,-0.031160,
2025-11-12T16:45:56.556492+00:00,5.000000,-0.031160,
2025-11-12T16:45:56.561492+00:00,5.005000,-0.032680,
2025-11-12T16:45:56.566492+00:00,5.010000,-0.036860,
2025-11-12T16:45:56.571492+00:00,5.015000,-0.037620,
2025-11-12T16:45:56.576492+00:00,5.020000,-0.033820,
2025-11-12T16:45:56.581492+00:00,5.025000,-0.030400,
2025-11-12T16:45:56.586492+00:00,5.030000,-0.029640,
2025-11-12T16:45:56.591492+00:00,5.035000,-0.031920,
2025-11-12T16:45:56.596492+00:00,5.040000,-0.031160,
2025-11-12T16:45:56.601492+00:00,5.045000,-0.030780,
2025-11-12T16:45:56.606492+00:00,5.050000,-0.029640,
2025-11-12T16:45:56.611492+00:00,5.055000,-0.030400,
2025-11-12T16:45:56.616492+00:00,5.060000,-0.031920,
2025-11-12T16:45:56.621492+00:00,5.065000,-0.034960,
2025-11-12T16:45:56.626492+00:00,5.070000,-0.036860,
2025-11-12T16:45:56.631492+00:00,5.075000,-0.037620,
2025-11-12T16:45:56.636492+00:00,5.080000,-0.035720,
2025-11-12T16:45:56.641492+00:00,5.085000,-0.033440,
2025-11-12T16:45:56.646492+00:00,5.090000,-0.028500,
2025-11-12T16:45:56.651492+00:00,5.095000,-0.020520,
2025-11-12T16:45:56.656492+00:00,5.100000,-0.012160,
2025-11-12T16:45:56.661492+00:00,5.105000,-0.006460,
2025-11-12T16:45:56.666492+00:00,5.110000,-0.007220,
2025-11-12T16:45:56.671492+00:00,5.115000,-0.013300,
2025-11-12T16:45:56.676491+00:00,5.120000,-0.023560,
2025-11-12T16:45:56.681492+00:00,5.125000,-0.030400,
2025-11-12T16:45:56.686492+00:00,5.130000,-0.029260,
2025-11-12T16:45:56.691492+00:00,5.135000,-0.022040,
2025-11-12T16:45:56.696492+00:00,5.140000,-0.020140,
2025-11-12T16:45:56.701492+00:00,5.145000,-0.023180,
2025-11-12T16:45:56.706492+00:00,5.150000,-0.030020,
2025-11-12T16:45:56.711492+00:00,5.155000,-0.037240,
2025-11-12T16:45:56.716492+00:00,5.160000,-0.046360,
2025-11-12T16:45:56.721492+00:00,5.165000,-0.054340,
2025-11-12T16:45:56.726492+00:00,5.170000,-0.058520,
2025-11-12T16:45:56.731492+00:00,5.175000,-0.055480,
2025-11-12T16:45:56.736492+00:00,5.180000,-0.049400,
2025-11-12T16:45:56.741492+00:00,5.185000,-0.043700,
2025-11-12T16:45:56.746492+00:00,5.190000,-0.040280,
2025-11-12T16:45:56.751492+00:00,5.195000,-0.038380,
2025-11-12T16:45:56.756492+00:00,5.200000,-0.037240,
2025-11-12T16:45:56.761492+00:00,5.205000,-0.036860,
2025-11-12T16:45:56.766492+00:00,5.210000,-0.036860,
2025-11-12T16:45:56.771492+00:00,5.215000,-0.037240,
2025-11-12T16:45:56.776492+00:00,5.220000,-0.037240,
2025-11-12T16:45:56.781492+00:00,5.225000,-0.034200,
2025-11-12T16:45:56.786492+00:00,5.230000,-0.030780,
2025-11-12T16:45:56.791492+00:00,5.235000,-0.028880,
2025-11-12T16:45:56.796492+00:00,5.240000,-0.025840,
2025-11-12T16:45:56.801491+00:00,5.245000,-0.015200,
2025-11-12T16:45:56.806492+00:00,5.250000,0.011020,
2025-11-12T16:45:56.811492+00:00,5.255000,0.047880,
2025-11-12T16:45:56.816492+00:00,5.260000,0.081700,
2025-11-12T16:45:56.821492+00:00,5.265000,0.136040,
2025-11-12T16:45:56.826492+00:00,5.270000,0.263720,
2025-11-12T16:45:56.831492+00:00,5.275000,0.422940,
2025-11-12T16:45:56.836492+00:00,5.280000,0.433200,
2025-11-12T16:45:56.841492+00:00,5.285000,0.182020,
2025-11-12T16:45:56.846492+00:00,5.290000,-0.197980,
2025-11-12T16:45:56.851492+00:00,5.295000,-0.443080,
2025-11-12T16:45:56.856492+00:00,5.300000,-0.436240,
2025-11-12T16:45:56.861492+00:00,5.305000,-0.297540,
2025-11-12T16:45:56.866492+00:00,5.310000,-0.195320,
2025-11-12T16:45:56.871492+00:00,5.315000,-0.158460,
2025-11-12T16:45:56.876492+00:00,5.320000,-0.136040,
2025-11-12T16:45:56.881492+00:00,5.325000,-0.104120,
2025-11-12T16:45:56.886492+00:00,5.330000,-0.079800,
2025-11-12T16:45:56.891492+00:00,5.335000,-0.068020,
2025-11-12T16:45:56.896492+00:00,5.340000,-0.059280,
2025-11-12T16:45:56.901492+00:00,5.345000,-0.052060,
2025-11-12T16:45:56.906492+00:00,5.350000,-0.042180,
2025-11-12T16:45:56.911492+00:00,5.355000,-0.034200,
2025-11-12T16:45:56.916492+00:00,5.360000,-0.029640,
2025-11-12T16:45:56.921492+00:00,5.365000,-0.029260,
2025-11-12T16:45:56.926491+00:00,5.370000,-0.028880,
2025-11-12T16:45:56.931492+00:00,5.375000,-0.028500,
2025-11-12T16:45:56.936492+00:00,5.380000,-0.029640,
2025-11-12T16:45:56.941492+00:00,5.385000,-0.027360,
2025-11-12T16:45:56.946492+00:00,5.390000,-0.025080,
2025-11-12T16:45:56.951492+00:00,5.395000,-0.023940,
2025-11-12T16:45:56.956492+00:00,5.400000,-0.023940,
2025-11-12T16:45:56.961492+00:00,5.405000,-0.024700,
2025-11-12T16:45:56.966492+00:00,5.410000,-0.023560,
2025-11-12T16:45:56.971492+00:00,5.415000,-0.021660,
2025-11-12T16:45:56.976492+00:00,5.420000,-0.018240,
2025-11-12T16:45:56.981492+00:00,5.425000,-0.016720,
2025-11-12T16:45:56.986492+00:00,5.430000,-0.016340,
2025-11-12T16:45:56.991492+00:00,5.435000,-0.017100,
2025-11-12T16:45:56.996492+00:00,5.440000,-0.014820,
2025-11-12T16:45:57.001492+00:00,5.445000,-0.013300,
2025-11-12T16:45:57.006492+00:00,5.450000,-0.011020,
2025-11-12T16:45:57.011492+00:00,5.455000,-0.008740,
2025-11-12T16:45:57.016492+00:00,5.460000,-0.005320,
2025-11-12T16:45:57.021492+00:00,5.465000,-0.002280,
2025-11-12T16:45:57.026492+00:00,5.470000,0.001140,
2025-11-12T16:45:57.031492+00:00,5.475000,0.004180,
2025-11-12T16:45:57.036492+00:00,5.480000,0.007600,
2025-11-12T16:45:57.041492+00:00,5.485000,0.011020,
2025-11-12T16:45:57.046492+00:00,5.490000,0.014060,
2025-11-12T16:45:57.051491+00:00,5.495000,0.015580,
2025-11-12T16:45:57.056492+00:00,5.500000,0.015580,
2025-11-12T16:45:57.061492+00:00,5.505000,0.015200,
2025-11-12T16:45:57.066492+00:00,5.510000,0.012920,
2025-11-12T16:45:57.071492+00:00,5.515000,0.009500,
2025-11-12T16:45:57.076492+00:00,5.520000,0.004180,
2025-11-12T16:45:57.081492+00:00,5.525000,-0.001900,
2025-11-12T16:45:57.086492+00:00,5.530000,-0.011400,
2025-11-12T16:45:57.091492+00:00,5.535000,-0.019760,
2025-11-12T16:45:57.096492+00:00,5.540000,-0.029260,
2025-11-12T16:45:57.101492+00:00,5.545000,-0.042560,
2025-11-12T16:45:57.106492+00:00,5.550000,-0.060040,
2025-11-12T16:45:57.111492+00:00,5.555000,-0.079040,
2025-11-12T16:45:57.116492+00:00,5.560000,-0.095760,
2025-11-12T16:45:57.121492+00:00,5.565000,-0.107920,
2025-11-12T16:45:57.126492+00:00,5.570000,-0.117040,
2025-11-12T16:45:57.131492+00:00,5.575000,-0.121980,
2025-11-12T16:45:57.136492+00:00,5.580000,-0.121600,
2025-11-12T16:45:57.141492+00:00,5.585000,-0.117040,
2025-11-12T16:45:57.146492+00:00,5.590000,-0.108300,
2025-11-12T16:45:57.151492+00:00,5.595000,-0.099180,
2025-11-12T16:45:57.156492+00:00,5.600000,-0.091960,
2025-11-12T16:45:57.161492+00:00,5.605000,-0.085120,
2025-11-12T16:45:57.166492+00:00,5.610000,-0.076760,
2025-11-12T16:45:57.171492+00:00,5.615000,-0.067640,
2025-11-12T16:45:57.176491+00:00,5.620000,-0.057760,
2025-11-12T16:45:57.181492+00:00,5.625000,-0.050920,
2025-11-12T16:45:57.186492+00:00,5.630000,-0.047500,
2025-11-12T16:45:57.191492+00:00,5.635000,-0.047500,
2025-11-12T16:45:57.196492+00:00,5.640000,-0.047120,
2025-11-12T16:45:57.201492+00:00,5.645000,-0.044460,
2025-11-12T16:45:57.206492+00:00,5.650000,-0.038380,
2025-11-12T16:45:57.211492+00:00,5.655000,-0.032300,
2025-11-12T16:45:57.216492+00:00,5.660000,-0.026980,
2025-11-12T16:45:57.221492+00:00,5.665000,-0.028500,
2025-11-12T16:45:57.226492+00:00,5.670000,-0.029640,
2025-11-12T16:45:57.231492+00:00,5.675000,-0.029640,
2025-11-12T16:45:57.236492+00:00,5.680000,-0.025460,
2025-11-12T16:45:57.241492+00:00,5.685000,-0.023560,
2025-11-12T16:45:57.246492+00:00,5.690000,-0.026980,
2025-11-12T16:45:57.251492+00:00,5.695000,-0.028880,
2025-11-12T16:45:57.256492+00:00,5.700000,-0.027740,
2025-11-12T16:45:57.261492+00:00,5.705000,-0.024320,
2025-11-12T16:45:57.266492+00:00,5.710000,-0.022040,
2025-11-12T16:45:57.271492+00:00,5.715000,-0.022800,
2025-11-12T16:45:57.276492+00:00,5.720000,-0.024320,
2025-11-12T16:45:57.281492+00:00,5.725000,-0.027360,
2025-11-12T16:45:57.286492+00:00,5.730000,-0.028120,
2025-11-12T16:45:57.291492+00:00,5.735000,-0.030020,
2025-11-12T16:45:57.296492+00:00,5.740000,-0.031160,
2025-11-12T16:45:57.301491+00:00,5.745000,-0.031540,
2025-11-12T16:45:57.306492+00:00,5.750000,-0.029640,
2025-11-12T16:45:57.311492+00:00,5.755000,-0.026600,
2025-11-12T16:45:57.316492+00:00,5.760000,-0.027360,
2025-11-12T16:45:57.321492+00:00,5.765000,-0.030780,
2025-11-12T16:45:57.326492+00:00,5.770000,-0.034960,
2025-11-12T16:45:57.331492+00:00,5.775000,-0.034960,
2025-11-12T16:45:57.336492+00:00,5.780000,-0.033820,
2025-11-12T16:45:57.341492+00:00,5.785000,-0.031160,
2025-11-12T16:45:57.346492+00:00,5.790000,-0.030020,
2025-11-12T16:45:57.351492+00:00,5.795000,-0.028880,
2025-11-12T16:45:57.356492+00:00,5.800000,-0.031920,
2025-11-12T16:45:57.361492+00:00,5.805000,-0.034580,
2025-11-12T16:45:57.366492+00:00,5.810000,-0.035340,
2025-11-12T16:45:57.371492+00:00,5.815000,-0.034960,
2025-11-12T16:45:57.376492+00:00,5.820000,-0.034580,
2025-11-12T16:45:57.381492+00:00,5.825000,-0.034580,
2025-11-12T16:45:57.386492+00:00,5.830000,-0.034580,
2025-11-12T16:45:57.391492+00:00,5.835000,-0.031160,
2025-11-12T16:45:57.396492+00:00,5.840000,-0.030400,
2025-11-12T16:45:57.401492+00:00,5.845000,-0.032300,
2025-11-12T16:45:57.406492+00:00,5.850000,-0.034960,
2025-11-12T16:45:57.411492+00:00,5.855000,-0.034580,
2025-11-12T16:45:57.416492+00:00,5.860000,-0.031540,
2025-11-12T16:45:57.421492+00:00,5.865000,-0.031920,
2025-11-12T16:45:57.426491+00:00,5.870000,-0.034200,
2025-11-12T16:45:57.431492+00:00,5.875000,-0.034960,
2025-11-12T16:45:57.436492+00:00,5.880000,-0.033060,
2025-11-12T16:45:57.441492+00:00,5.885000,-0.031920,
2025-11-12T16:45:57.446492+00:00,5.890000,-0.032680,
2025-11-12T16:45:57.451492+00:00,5.895000,-0.035340,
2025-11-12T16:45:57.456492+00:00,5.900000,-0.034580,
2025-11-12T16:45:57.461492+00:00,5.905000,-0.025840,
2025-11-12T16:45:57.466492+00:00,5.910000,-0.015960,
2025-11-12T16:45:57.471492+00:00,5.915000,-0.009880,
2025-11-12T16:45:57.476492+00:00,5.920000,-0.010260,
2025-11-12T16:45:57.481492+00:00,5.925000,-0.014820,
2025-11-12T16:45:57.486492+00:00,5.930000,-0.022420,
2025-11-12T16:45:57.491492+00:00,5.935000,-0.028500,
2025-11-12T16:45:57.496492+00:00,5.940000,-0.028500,
2025-11-12T16:45:57.501492+00:00,5.945000,-0.025460,
2025-11-12T16:45:57.506492+00:00,5.950000,-0.022800,
2025-11-12T16:45:57.511492+00:00,5.955000,-0.023940,
2025-11-12T16:45:57.516492+00:00,5.960000,-0.028120,
2025-11-12T16:45:57.521492+00:00,5.965000,-0.034960,
2025-11-12T16:45:57.526492+00:00,5.970000,-0.041040,
2025-11-12T16:45:57.531492+00:00,5.975000,-0.048260,
2025-11-12T16:45:57.536492+00:00,5.980000,-0.055100,
2025-11-12T16:45:57.541492+00:00,5.985000,-0.056620,
2025-11-12T16:45:57.546492+00:00,5.990000,-0.051300,
2025-11-12T16:45:57.551491+00:00,5.995000,-0.045220,
2025-11-12T16:45:57.556492+00:00,6.000000,-0.040280,
2025-11-12T16:45:57.561492+00:00,6.005000,-0.037240,
2025-11-12T16:45:57.566492+00:00,6.010000,-0.035720,
2025-11-12T16:45:57.571492+00:00,6.015000,-0.035720,
2025-11-12T16:45:57.576492+00:00,6.020000,-0.035340,
2025-11-12T16:45:57.581492+00:00,6.025000,-0.036480,
2025-11-12T16:45:57.586492+00:00,6.030000,-0.036480,
2025-11-12T16:45:57.591492+00:00,6.035000,-0.035720,
2025-11-12T16:45:57.596492+00:00,6.040000,-0.033440,
2025-11-12T16:45:57.601492+00:00,6.045000,-0.033820,
2025-11-12T16:45:57.606492+00:00,6.050000,-0.033060,
2025-11-12T16:45:57.611492+00:00,6.055000,-0.021660,
2025-11-12T16:45:57.616492+00:00,6.060000,0.004180,
2025-11-12T16:45:57.621492+00:00,6.065000,0.041040,
2025-11-12T16:45:57.626492+00:00,6.070000,0.072580,
2025-11-12T16:45:57.631492+00:00,6.075000,0.116660,
2025-11-12T16:45:57.636492+00:00,6.080000,0.227620,
2025-11-12T16:45:57.641492+00:00,6.085000,0.402420,
2025-11-12T16:45:57.646492+00:00,6.090000,0.476520,
2025-11-12T16:45:57.651492+00:00,6.095000,0.288800,
2025-11-12T16:45:57.656492+00:00,6.100000,-0.094240,
2025-11-12T16:45:57.661492+00:00,6.105000,-0.409260,
2025-11-12T16:45:57.666492+00:00,6.110000,-0.473100,
2025-11-12T16:45:57.671492+00:00,6.115000,-0.348840,
2025-11-12T16:45:57.676491+00:00,6.120000,-0.223060,
2025-11-12T16:45:57.681492+00:00,6.125000,-0.172900,
2025-11-12T16:45:57.686492+00:00,6.130000,-0.153900,
2025-11-12T16:45:57.691492+00:00,6.135000,-0.125780,
2025-11-12T16:45:57.696492+00:00,6.140000,-0.095760,
2025-11-12T16:45:57.701492+00:00,6.145000,-0.074860,
2025-11-12T16:45:57.706492+00:00,6.150000,-0.062320,
2025-11-12T16:45:57.711492+00:00,6.155000,-0.057380,
2025-11-12T16:45:57.716492+00:00,6.160000,-0.053200,
2025-11-12T16:45:57.721492+00:00,6.165000,-0.045980,
2025-11-12T16:45:57.726492+00:00,6.170000,-0.038000,
2025-11-12T16:45:57.731492+00:00,6.175000,-0.034580,
2025-11-12T16:45:57.736492+00:00,6.180000,-0.031920,
2025-11-12T16:45:57.741492+00:00,6.185000,-0.029640,
2025-11-12T16:45:57.746492+00:00,6.190000,-0.028120,
2025-11-12T16:45:57.751492+00:00,6.195000,-0.028120,
2025-11-12T16:45:57.756492+00:00,6.200000,-0.030400,
2025-11-12T16:45:57.761492+00:00,6.205000,-0.031540,
2025-11-12T16:45:57.766492+00:00,6.210000,-0.029260,
2025-11-12T16:45:57.771492+00:00,6.215000,-0.022800,
2025-11-12T16:45:57.776492+00:00,6.220000,-0.019380,
2025-11-12T16:45:57.781492+00:00,6.225000,-0.019380,
2025-11-12T16:45:57.786492+00:00,6.230000,-0.023940,
2025-11-12T16:45:57.791492+00:00,6.235000,-0.026220,
2025-11-12T16:45:57.796492+00:00,6.240000,-0.022420,
2025-11-12T16:45:57.801491+00:00,6.245000,-0.017860,
2025-11-12T16:45:57.806492+00:00,6.250000,-0.014440,
2025-11-12T16:45:57.811492+00:00,6.255000,-0.013300,
2025-11-12T16:45:57.816492+00:00,6.260000,-0.011780,
2025-11-12T16:45:57.821492+00:00,6.265000,-0.011020,
2025-11-12T16:45:57.826492+00:00,6.270000,-0.009120,
2025-11-12T16:45:57.831492+00:00,6.275000,-0.004180,
2025-11-12T16:45:57.836492+00:00,6.280000,0.000380,
2025-11-12T16:45:57.841492+00:00,6.285000,0.004560,
2025-11-12T16:45:57.846492+00:00,6.290000,0.007600,
2025-11-12T16:45:57.851492+00:00,6.295000,0.009880,
2025-11-12T16:45:57.856492+00:00,6.300000,0.013680,
2025-11-12T16:45:57.861492+00:00,6.305000,0.013680,
2025-11-12T16:45:57.866492+00:00,6.310000,0.012920,
2025-11-12T16:45:57.871492+00:00,6.315000,0.011780,
2025-11-12T16:45:57.876492+00:00,6.320000,0.013680,
2025-11-12T16:45:57.881492+00:00,6.325000,0.012920,
2025-11-12T16:45:57.886492+00:00,6.330000,0.007220,
2025-11-12T16:45:57.891492+00:00,6.335000,-0.001520,
2025-11-12T16:45:57.896492+00:00,6.340000,-0.010640,
2025-11-12T16:45:57.901492+00:00,6.345000,-0.019000,
2025-11-12T16:45:57.906492+00:00,6.350000,-0.028880,
2025-11-12T16:45:57.911492+00:00,6.355000,-0.043320,
2025-11-12T16:45:57.916492+00:00,6.360000,-0.059660,
2025-11-12T16:45:57.921492+00:00,6.365000,-0.076380,
2025-11-12T16:45:57.926491+00:00,6.370000,-0.093860,
2025-11-12T16:45:57.931492+00:00,6.375000,-0.107920,
2025-11-12T16:45:57.936492+00:00,6.380000,-0.119320,
2025-11-12T16:45:57.941492+00:00,6.385000,-0.127300,
2025-11-12T16:45:57.946492+00:00,6.390000,-0.128820,
2025-11-12T16:45:57.951492+00:00,6.395000,-0.128060,
2025-11-12T16:45:57.956492+00:00,6.400000,-0.123120,
2025-11-12T16:45:57.961492+00:00,6.405000,-0.113240,
2025-11-12T16:45:57.966492+00:00,6.410000,-0.098040,
2025-11-12T16:45:57.971492+00:00,6.415000,-0.084740,
2025-11-12T16:45:57.976492+00:00,6.420000,-0.075620,
2025-11-12T16:45:57.981492+00:00,6.425000,-0.071440,
2025-11-12T16:45:57.986492+00:00,6.430000,-0.066880,
2025-11-12T16:45:57.991492+00:00,6.435000,-0.059660,
2025-11-12T16:45:57.996492+00:00,6.440000,-0.052820,
2025-11-12T16:45:58.001492+00:00,6.445000,-0.049400,
2025-11-12T16:45:58.006492+00:00,6.450000,-0.046740,
2025-11-12T16:45:58.011492+00:00,6.455000,-0.042560,
2025-11-12T16:45:58.016492+00:00,6.460000,-0.037620,
2025-11-12T16:45:58.021492+00:00,6.465000,-0.033820,
2025-11-12T16:45:58.026492+00:00,6.470000,-0.034960,
2025-11-12T16:45:58.031492+00:00,6.475000,-0.034960,
2025-11-12T16:45:58.036492+00:00,6.480000,-0.034200,
2025-11-12T16:45:58.041492+00:00,6.485000,-0.031160,
2025-11-12T16:45:58.046492+00:00,6.490000,-0.028880,
2025-11-12T16:45:58.051491+00:00,6.495000,-0.030020,
2025-11-12T16:45:58.056492+00:00,6.500000,-0.031540,
2025-11-12T16:45:58.061492+00:00,6.505000,-0.030020,
2025-11-12T16:45:58.066492+00:00,6.510000,-0.027740,
2025-11-12T16:45:58.071492+00:00,6.515000,-0.025080,
2025-11-12T16:45:58.076492+00:00,6.520000,-0.023940,
2025-11-12T16:45:58.081492+00:00,6.525000,-0.024700,
2025-11-12T16:45:58.086492+00:00,6.530000,-0.026980,
2025-11-12T16:45:58.091492+00:00,6.535000,-0.030020,
2025-11-12T16:45:58.096492+00:00,6.540000,-0.031160,
2025-11-12T16:45:58.101492+00:00,6.545000,-0.029640,
2025-11-12T16:45:58.106492+00:00,6.550000,-0.026220,
2025-11-12T16:45:58.111492+00:00,6.555000,-0.025080,
2025-11-12T16:45:58.116492+00:00,6.560000,-0.026220,
2025-11-12T16:45:58.121492+00:00,6.565000,-0.028880,
2025-11-12T16:45:58.126492+00:00,6.570000,-0.030400,
2025-11-12T16:45:58.131492+00:00,6.575000,-0.030400,
2025-11-12T16:45:58.136492+00:00,6.580000,-0.031540,
2025-11-12T16:45:58.141492+00:00,6.585000,-0.033820,
2025-11-12T16:45:58.146492+00:00,6.590000,-0.034580,
2025-11-12T16:45:58.151492+00:00,6.595000,-0.034580,
2025-11-12T16:45:58.156492+00:00,6.600000,-0.033820,
2025-11-12T16:45:58.161492+00:00,6.605000,-0.035340,
2025-11-12T16:45:58.166492+00:00,6.610000,-0.037620,
2025-11-12T16:45:58.171492+00:00,6.615000,-0.037620,
2025-11-12T16:45:58.176491+00:00,6.620000,-0.036860,
2025-11-12T16:45:58.181492+00:00,6.625000,-0.035720,
2025-11-12T16:45:58.186492+00:00,6.630000,-0.033060,
2025-11-12T16:45:58.191492+00:00,6.635000,-0.028880,
2025-11-12T16:45:58.196492+00:00,6.640000,-0.025840,
2025-11-12T16:45:58.201492+00:00,6.645000,-0.027740,
2025-11-12T16:45:58.206492+00:00,6.650000,-0.032680,
2025-11-12T16:45:58.211492+00:00,6.655000,-0.037240,
2025-11-12T16:45:58.216492+00:00,6.660000,-0.037240,
2025-11-12T16:45:58.221492+00:00,6.665000,-0.033060,
2025-11-12T16:45:58.226492+00:00,6.670000,-0.026980,
2025-11-12T16:45:58.231492+00:00,6.675000,-0.019760,
2025-11-12T16:45:58.236492+00:00,6.680000,-0.014440,
2025-11-12T16:45:58.241492+00:00,6.685000,-0.011780,
2025-11-12T16:45:58.246492+00:00,6.690000,-0.011780,
2025-11-12T16:45:58.251492+00:00,6.695000,-0.018620,
2025-11-12T16:45:58.256492+00:00,6.700000,-0.026980,
2025-11-12T16:45:58.261492+00:00,6.705000,-0.031920,
2025-11-12T16:45:58.266492+00:00,6.710000,-0.029260,
2025-11-12T16:45:58.271492+00:00,6.715000,-0.024320,
2025-11-12T16:45:58.276492+00:00,6.720000,-0.022800,
2025-11-12T16:45:58.281492+00:00,6.725000,-0.025840,
2025-11-12T16:45:58.286492+00:00,6.730000,-0.033060,
2025-11-12T16:45:58.291492+00:00,6.735000,-0.042560,
2025-11-12T16:45:58.296492+00:00,6.740000,-0.050160,
2025-11-12T16:45:58.301491+00:00,6.745000,-0.053960,
2025-11-12T16:45:58.306492+00:00,6.750000,-0.052820,
2025-11-12T16:45:58.311492+00:00,6.755000,-0.050540,
2025-11-12T16:45:58.316492+00:00,6.760000,-0.049400,
2025-11-12T16:45:58.321492+00:00,6.765000,-0.047880,
2025-11-12T16:45:58.326492+00:00,6.770000,-0.044840,
2025-11-12T16:45:58.331492+00:00,6.775000,-0.039140,
2025-11-12T16:45:58.336492+00:00,6.780000,-0.034200,
2025-11-12T16:45:58.341492+00:00,6.785000,-0.032300,
2025-11-12T16:45:58.346492+00:00,6.790000,-0.031160,
2025-11-12T16:45:58.351492+00:00,6.795000,-0.031920,
2025-11-12T16:45:58.356492+00:00,6.800000,-0.032300,
2025-11-12T16:45:58.361492+00:00,6.805000,-0.032300,
2025-11-12T16:45:58.366492+00:00,6.810000,-0.033440,
2025-11-12T16:45:58.371492+00:00,6.815000,-0.033820,
2025-11-12T16:45:58.376492+00:00,6.820000,-0.028500,
2025-11-12T16:45:58.381492+00:00,6.825000,-0.013680,
2025-11-12T16:45:58.386492+00:00,6.830000,0.019380,
2025-11-12T16:45:58.391492+00:00,6.835000,0.067260,
2025-11-12T16:45:58.396492+00:00,6.840000,0.110200,
2025-11-12T16:45:58.401492+00:00,6.845000,0.162260,
2025-11-12T16:45:58.406492+00:00,6.850000,0.254220,
2025-11-12T16:45:58.411492+00:00,6.855000,0.336680,
2025-11-12T16:45:58.416492+00:00,6.860000,0.273220,
2025-11-12T16:45:58.421492+00:00,6.865000,0.016720,
2025-11-12T16:45:58.426491+00:00,6.870000,-0.285000,
2025-11-12T16:45:58.431492+00:00,6.875000,-0.425980,
2025-11-12T16:45:58.436492+00:00,6.880000,-0.357960,
2025-11-12T16:45:58.441492+00:00,6.885000,-0.216980,
2025-11-12T16:45:58.446492+00:00,6.890000,-0.134900,
2025-11-12T16:45:58.451492+00:00,6.895000,-0.109440,
2025-11-12T16:45:58.456492+00:00,6.900000,-0.089680,
2025-11-12T16:45:58.461492+00:00,6.905000,-0.070300,
2025-11-12T16:45:58.466492+00:00,6.910000,-0.059280,
2025-11-12T16:45:58.471492+00:00,6.915000,-0.053200,
2025-11-12T16:45:58.476492+00:00,6.920000,-0.044840,
2025-11-12T16:45:58.481492+00:00,6.925000,-0.036860,
2025-11-12T16:45:58.486492+00:00,6.930000,-0.030020,
2025-11-12T16:45:58.491492+00:00,6.935000,-0.026980,
2025-11-12T16:45:58.496492+00:00,6.940000,-0.024320,
2025-11-12T16:45:58.501492+00:00,6.945000,-0.024700,
2025-11-12T16:45:58.506492+00:00,6.950000,-0.024320,
2025-11-12T16:45:58.511492+00:00,6.955000,-0.025460,
2025-11-12T16:45:58.516492+00:00,6.960000,-0.023560,
2025-11-12T16:45:58.521492+00:00,6.965000,-0.023560,
2025-11-12T16:45:58.526492+00:00,6.970000,-0.022800,
2025-11-12T16:45:58.531492+00:00,6.975000,-0.023560,
2025-11-12T16:45:58.536492+00:00,6.980000,-0.023560,
2025-11-12T16:45:58.541492+00:00,6.985000,-0.022040,
2025-11-12T16:45:58.546492+00:00,6.990000,-0.019380,
2025-11-12T16:45:58.551491+00:00,6.995000,-0.017100,
2025-11-12T16:45:58.556492+00:00,7.000000,-0.018620,
2025-11-12T16:45:58.561492+00:00,7.005000,-0.022040,
2025-11-12T16:45:58.566492+00:00,7.010000,-0.022040,
2025-11-12T16:45:58.571492+00:00,7.015000,-0.017480,
2025-11-12T16:45:58.576492+00:00,7.020000,-0.011400,
2025-11-12T16:45:58.581492+00:00,7.025000,-0.007600,
2025-11-12T16:45:58.586492+00:00,7.030000,-0.007980,
2025-11-12T16:45:58.591492+00:00,7.035000,-0.006460,
2025-11-12T16:45:58.596492+00:00,7.040000,-0.003800,
2025-11-12T16:45:58.601492+00:00,7.045000,-0.001900,
2025-11-12T16:45:58.606492+00:00,7.050000,0.002660,
2025-11-12T16:45:58.611492+00:00,7.055000,0.006460,
2025-11-12T16:45:58.616492+00:00,7.060000,0.009880,
2025-11-12T16:45:58.621492+00:00,7.065000,0.012160,
2025-11-12T16:45:58.626492+00:00,7.070000,0.014820,
2025-11-12T16:45:58.631492+00:00,7.075000,0.020900,
2025-11-12T16:45:58.636492+00:00,7.080000,0.025080,
2025-11-12T16:45:58.641492+00:00,7.085000,0.024320,
2025-11-12T16:45:58.646492+00:00,7.090000,0.020900,
2025-11-12T16:45:58.651492+00:00,7.095000,0.013680,
2025-11-12T16:45:58.656492+00:00,7.100000,0.004560,
2025-11-12T16:45:58.661492+00:00,7.105000,-0.004940,
2025-11-12T16:45:58.666492+00:00,7.110000,-0.015200,
2025-11-12T16:45:58.671492+00:00,7.115000,-0.025840,
2025-11-12T16:45:58.676491+00:00,7.120000,-0.037240,
2025-11-12T16:45:58.681492+00:00,7.125000,-0.049400,
2025-11-12T16:45:58.686492+00:00,7.130000,-0.067260,
2025-11-12T16:45:58.691492+00:00,7.135000,-0.087780,
2025-11-12T16:45:58.696492+00:00,7.140000,-0.109060,
2025-11-12T16:45:58.701492+00:00,7.145000,-0.126540,
2025-11-12T16:45:58.706492+00:00,7.150000,-0.136420,
2025-11-12T16:45:58.711492+00:00,7.155000,-0.138700,
2025-11-12T16:45:58.716492+00:00,7.160000,-0.134520,
2025-11-12T16:45:58.721492+00:00,7.165000,-0.126160,
2025-11-12T16:45:58.726492+00:00,7.170000,-0.116660,
2025-11-12T16:45:58.731492+00:00,7.175000,-0.105260,
2025-11-12T16:45:58.736492+00:00,7.180000,-0.094620,
2025-11-12T16:45:58.741492+00:00,7.185000,-0.085500,
2025-11-12T16:45:58.746492+00:00,7.190000,-0.078660,
2025-11-12T16:45:58.751492+00:00,7.195000,-0.072960,
2025-11-12T16:45:58.756492+00:00,7.200000,-0.066880,
2025-11-12T16:45:58.761492+00:00,7.205000,-0.063460,
2025-11-12T16:45:58.766492+00:00,7.210000,-0.056240,
2025-11-12T16:45:58.771492+00:00,7.215000,-0.048640,
2025-11-12T16:45:58.776492+00:00,7.220000,-0.040280,
2025-11-12T16:45:58.781492+00:00,7.225000,-0.038760,
2025-11-12T16:45:58.786492+00:00,7.230000,-0.038760,
2025-11-12T16:45:58.791492+00:00,7.235000,-0.037240,
2025-11-12T16:45:58.796492+00:00,7.240000,-0.030020,
2025-11-12T16:45:58.801491+00:00,7.245000,-0.025080,
2025-11-12T16:45:58.806492+00:00,7.250000,-0.023560,
2025-11-12T16:45:58.811492+00:00,7.255000,-0.027360,
2025-11-12T16:45:58.816492+00:00,7.260000,-0.028120,
2025-11-12T16:45:58.821492+00:00,7.265000,-0.025840,
2025-11-12T16:45:58.826492+00:00,7.270000,-0.021280,
2025-11-12T16:45:58.831492+00:00,7.275000,-0.019760,
2025-11-12T16:45:58.836492+00:00,7.280000,-0.019760,
2025-11-12T16:45:58.841492+00:00,7.285000,-0.022420,
2025-11-12T16:45:58.846492+00:00,7.290000,-0.024320,
2025-11-12T16:45:58.851492+00:00,7.295000,-0.024700,
2025-11-12T16:45:58.856492+00:00,7.300000,-0.023180,
2025-11-12T16:45:58.861492+00:00,7.305000,-0.022800,
2025-11-12T16:45:58.866492+00:00,7.310000,-0.025080,
2025-11-12T16:45:58.871492+00:00,7.315000,-0.025080,
2025-11-12T16:45:58.876492+00:00,7.320000,-0.025080,
2025-11-12T16:45:58.881492+00:00,7.325000,-0.027360,
2025-11-12T16:45:58.886492+00:00,7.330000,-0.031160,
2025-11-12T16:45:58.891492+00:00,7.335000,-0.033820,
2025-11-12T16:45:58.896492+00:00,7.340000,-0.034200,
2025-11-12T16:45:58.901492+00:00,7.345000,-0.032680,
2025-11-12T16:45:58.906492+00:00,7.350000,-0.032300,
2025-11-12T16:45:58.911492+00:00,7.355000,-0.031920,
2025-11-12T16:45:58.916492+00:00,7.360000,-0.034580,
2025-11-12T16:45:58.921492+00:00,7.365000,-0.038000,
2025-11-12T16:45:58.926491+00:00,7.370000,-0.039520,
2025-11-12T16:45:58.931492+00:00,7.375000,-0.036860,
2025-11-12T16:45:58.936492+00:00,7.380000,-0.034580,
2025-11-12T16:45:58.941492+00:00,7.385000,-0.033440,
2025-11-12T16:45:58.946492+00:00,7.390000,-0.034960,
2025-11-12T16:45:58.951492+00:00,7.395000,-0.036860,
2025-11-12T16:45:58.956492+00:00,7.400000,-0.037620,
2025-11-12T16:45:58.961492+00:00,7.405000,-0.034580,
2025-11-12T16:45:58.966492+00:00,7.410000,-0.031540,
2025-11-12T16:45:58.971492+00:00,7.415000,-0.030400,
2025-11-12T16:45:58.976492+00:00,7.420000,-0.030400,
2025-11-12T16:45:58.981492+00:00,7.425000,-0.031540,
2025-11-12T16:45:58.986492+00:00,7.430000,-0.030780,
2025-11-12T16:45:58.991492+00:00,7.435000,-0.030400,
2025-11-12T16:45:58.996492+00:00,7.440000,-0.031920,
2025-11-12T16:45:59.001492+00:00,7.445000,-0.034200,
2025-11-12T16:45:59.006492+00:00,7.450000,-0.034200,
2025-11-12T16:45:59.011492+00:00,7.455000,-0.031160,
2025-11-12T16:45:59.016492+00:00,7.460000,-0.029640,
2025-11-12T16:45:59.021492+00:00,7.465000,-0.031540,
2025-11-12T16:45:59.026492+00:00,7.470000,-0.036100,
2025-11-12T16:45:59.031492+00:00,7.475000,-0.036480,
2025-11-12T16:45:59.036492+00:00,7.480000,-0.031160,
2025-11-12T16:45:59.041492+00:00,7.485000,-0.022040,
2025-11-12T16:45:59.046492+00:00,7.490000,-0.015200,
2025-11-12T16:45:59.051491+00:00,7.495000,-0.011400,
2025-11-12T16:45:59.056492+00:00,7.500000,-0.011780,
2025-11-12T16:45:59.061492+00:00,7.505000,-0.015200,
2025-11-12T16:45:59.066492+00:00,7.510000,-0.024320,
2025-11-12T16:45:59.071492+00:00,7.515000,-0.030780,
2025-11-12T16:45:59.076492+00:00,7.520000,-0.030780,
2025-11-12T16:45:59.081492+00:00,7.525000,-0.024700,
2025-11-12T16:45:59.086492+00:00,7.530000,-0.020900,
2025-11-12T16:45:59.091492+00:00,7.535000,-0.023180,
2025-11-12T16:45:59.096492+00:00,7.540000,-0.030400,
2025-11-12T16:45:59.101492+00:00,7.545000,-0.037240,
2025-11-12T16:45:59.106492+00:00,7.550000,-0.043700,
2025-11-12T16:45:59.111492+00:00,7.555000,-0.050540,
2025-11-12T16:45:59.116492+00:00,7.560000,-0.055860,
2025-11-12T16:45:59.121492+00:00,7.565000,-0.055100,
2025-11-12T16:45:59.126492+00:00,7.570000,-0.050540,
2025-11-12T16:45:59.131492+00:00,7.575000,-0.044460,
2025-11-12T16:45:59.136492+00:00,7.580000,-0.042940,
2025-11-12T16:45:59.141492+00:00,7.585000,-0.041040,
2025-11-12T16:45:59.146492+00:00,7.590000,-0.039900,
2025-11-12T16:45:59.151492+00:00,7.595000,-0.039140,
2025-11-12T16:45:59.156492+00:00,7.600000,-0.038760,
2025-11-12T16:45:59.161492+00:00,7.605000,-0.037240,
2025-11-12T16:45:59.166492+00:00,7.610000,-0.032680,
2025-11-12T16:45:59.171492+00:00,7.615000,-0.028120,
2025-11-12T16:45:59.176491+00:00,7.620000,-0.027740,
2025-11-12T16:45:59.181492+00:00,7.625000,-0.030400,
2025-11-12T16:45:59.186492+00:00,7.630000,-0.028120,
2025-11-12T16:45:59.191492+00:00,7.635000,-0.013300,
2025-11-12T16:45:59.196492+00:00,7.640000,0.019380,
2025-11-12T16:45:59.201492+00:00,7.645000,0.056620,
2025-11-12T16:45:59.206492+00:00,7.650000,0.090440,
2025-11-12T16:45:59.211492+00:00,7.655000,0.153140,
2025-11-12T16:45:59.216492+00:00,7.660000,0.297160,
2025-11-12T16:45:59.221492+00:00,7.665000,0.457520,
2025-11-12T16:45:59.226492+00:00,7.670000,0.444220,
2025-11-12T16:45:59.231492+00:00,7.675000,0.160740,
2025-11-12T16:45:59.236492+00:00,7.680000,-0.233320,
2025-11-12T16:45:59.241492+00:00,7.685000,-0.465880,
2025-11-12T16:45:59.246492+00:00,7.690000,-0.440040,
2025-11-12T16:45:59.251492+00:00,7.695000,-0.299820,
2025-11-12T16:45:59.256492+00:00,7.700000,-0.202160,
2025-11-12T16:45:59.261492+00:00,7.705000,-0.171380,
2025-11-12T16:45:59.266492+00:00,7.710000,-0.145920,
2025-11-12T16:45:59.271492+00:00,7.715000,-0.113620,
2025-11-12T16:45:59.276492+00:00,7.720000,-0.089300,
2025-11-12T16:45:59.281492+00:00,7.725000,-0.075240,
2025-11-12T16:45:59.286492+00:00,7.730000,-0.062320,
2025-11-12T16:45:59.291492+00:00,7.735000,-0.053200,
2025-11-12T16:45:59.296492+00:00,7.740000,-0.047880,
2025-11-12T16:45:59.301491+00:00,7.745000,-0.045220,
2025-11-12T16:45:59.306492+00:00,7.750000,-0.041800,
2025-11-12T16:45:59.311492+00:00,7.755000,-0.037240,
2025-11-12T16:45:59.316492+00:00,7.760000,-0.031540,
2025-11-12T16:45:59.321492+00:00,7.765000,-0.029640,
2025-11-12T16:45:59.326492+00:00,7.770000,-0.029260,
2025-11-12T16:45:59.331492+00:00,7.775000,-0.026600,
2025-11-12T16:45:59.336492+00:00,7.780000,-0.025460,
2025-11-12T16:45:59.341492+00:00,7.785000,-0.023940,
2025-11-12T16:45:59.346492+00:00,7.790000,-0.023940,
2025-11-12T16:45:59.351492+00:00,7.795000,-0.024700,
2025-11-12T16:45:59.356492+00:00,7.800000,-0.023940,
2025-11-12T16:45:59.361492+00:00,7.805000,-0.022040,
2025-11-12T16:45:59.366492+00:00,7.810000,-0.021660,
2025-11-12T16:45:59.371492+00:00,7.815000,-0.021660,
2025-11-12T16:45:59.376492+00:00,7.820000,-0.020140,
2025-11-12T16:45:59.381492+00:00,7.825000,-0.018620,
2025-11-12T16:45:59.386492+00:00,7.830000,-0.017480,
2025-11-12T16:45:59.391492+00:00,7.835000,-0.017480,
2025-11-12T16:45:59.396492+00:00,7.840000,-0.018620,
2025-11-12T16:45:59.401492+00:00,7.845000,-0.017480,
2025-11-12T16:45:59.406492+00:00,7.850000,-0.012160,
2025-11-12T16:45:59.411492+00:00,7.855000,-0.004180,
2025-11-12T16:45:59.416492+00:00,7.860000,0.000760,
2025-11-12T16:45:59.421492+00:00,7.865000,0.002280,
2025-11-12T16:45:59.426491+00:00,7.870000,0.003420,
2025-11-12T16:45:59.431492+00:00,7.875000,0.008360,
2025-11-12T16:45:59.436492+00:00,7.880000,0.014440,
2025-11-12T16:45:59.441492+00:00,7.885000,0.019000,
2025-11-12T16:45:59.446492+00:00,7.890000,0.020140,
2025-11-12T16:45:59.451492+00:00,7.895000,0.016720,
2025-11-12T16:45:59.456492+00:00,7.900000,0.011020,
2025-11-12T16:45:59.461492+00:00,7.905000,0.003800,
2025-11-12T16:45:59.466492+00:00,7.910000,-0.004180,
2025-11-12T16:45:59.471492+00:00,7.915000,-0.010640,
2025-11-12T16:45:59.476492+00:00,7.920000,-0.018620,
2025-11-12T16:45:59.481492+00:00,7.925000,-0.029260,
2025-11-12T16:45:59.486492+00:00,7.930000,-0.039520,
2025-11-12T16:45:59.491492+00:00,7.935000,-0.051300,
2025-11-12T16:45:59.496492+00:00,7.940000,-0.063840,
2025-11-12T16:45:59.501492+00:00,7.945000,-0.079800,
2025-11-12T16:45:59.506492+00:00,7.950000,-0.096140,
2025-11-12T16:45:59.511492+00:00,7.955000,-0.110960,
2025-11-12T16:45:59.516492+00:00,7.960000,-0.118940,
2025-11-12T16:45:59.521492+00:00,7.965000,-0.120840,
2025-11-12T16:45:59.526492+00:00,7.970000,-0.117420,
2025-11-12T16:45:59.531492+00:00,7.975000,-0.112860,
2025-11-12T16:45:59.536492+00:00,7.980000,-0.108680,
2025-11-12T16:45:59.541492+00:00,7.985000,-0.102600,
2025-11-12T16:45:59.546492+00:00,7.990000,-0.091960,
2025-11-12T16:45:59.551491+00:00,7.995000,-0.081700,
2025-11-12T16:45:59.556492+00:00,8.000000,-0.072960,
2025-11-12T16:45:59.561492+00:00,8.005000,-0.065740,
2025-11-12T16:45:59.566492+00:00,8.010000,-0.059280,
2025-11-12T16:45:59.571492+00:00,8.015000,-0.053200,
2025-11-12T16:45:59.576492+00:00,8.020000,-0.050540,
2025-11-12T16:45:59.581492+00:00,8.025000,-0.047120,
2025-11-12T16:45:59.586492+00:00,8.030000,-0.044080,
2025-11-12T16:45:59.591492+00:00,8.035000,-0.039520,
2025-11-12T16:45:59.596492+00:00,8.040000,-0.038000,
2025-11-12T16:45:59.601492+00:00,8.045000,-0.038380,
2025-11-12T16:45:59.606492+00:00,8.050000,-0.036480,
2025-11-12T16:45:59.611492+00:00,8.055000,-0.031160,
2025-11-12T16:45:59.616492+00:00,8.060000,-0.028120,
2025-11-12T16:45:59.621492+00:00,8.065000,-0.027740,
2025-11-12T16:45:59.626492+00:00,8.070000,-0.029260,
2025-11-12T16:45:59.631492+00:00,8.075000,-0.030400,
2025-11-12T16:45:59.636492+00:00,8.080000,-0.031160,
2025-11-12T16:45:59.641492+00:00,8.085000,-0.030400,
2025-11-12T16:45:59.646492+00:00,8.090000,-0.029260,
2025-11-12T16:45:59.651492+00:00,8.095000,-0.028880,
2025-11-12T16:45:59.656492+00:00,8.100000,-0.030400,
2025-11-12T16:45:59.661492+00:00,8.105000,-0.033060,
2025-11-12T16:45:59.666492+00:00,8.110000,-0.032680,
2025-11-12T16:45:59.671492+00:00,8.115000,-0.030020,
2025-11-12T16:45:59.676491+00:00,8.120000,-0.025840,
2025-11-12T16:45:59.681492+00:00,8.125000,-0.026220,
2025-11-12T16:45:59.686492+00:00,8.130000,-0.029640,
2025-11-12T16:45:59.691492+00:00,8.135000,-0.033820,
2025-11-12T16:45:59.696492+00:00,8.140000,-0.033060,
2025-11-12T16:45:59.701492+00:00,8.145000,-0.028880,
2025-11-12T16:45:59.706492+00:00,8.150000,-0.026980,
2025-11-12T16:45:59.711492+00:00,8.155000,-0.028500,
2025-11-12T16:45:59.716492+00:00,8.160000,-0.032680,
2025-11-12T16:45:59.721492+00:00,8.165000,-0.034580,
2025-11-12T16:45:59.726492+00:00,8.170000,-0.034200,
2025-11-12T16:45:59.731492+00:00,8.175000,-0.033060,
2025-11-12T16:45:59.736492+00:00,8.180000,-0.032300,
2025-11-12T16:45:59.741492+00:00,8.185000,-0.031920,
2025-11-12T16:45:59.746492+00:00,8.190000,-0.031540,
2025-11-12T16:45:59.751492+00:00,8.195000,-0.031540,
2025-11-12T16:45:59.756492+00:00,8.200000,-0.033820,
2025-11-12T16:45:59.761492+00:00,8.205000,-0.034580,
2025-11-12T16:45:59.766492+00:00,8.210000,-0.035720,
2025-11-12T16:45:59.771492+00:00,8.215000,-0.036100,
2025-11-12T16:45:59.776492+00:00,8.220000,-0.035340,
2025-11-12T16:45:59.781492+00:00,8.225000,-0.030400,
2025-11-12T16:45:59.786492+00:00,8.230000,-0.026600,
2025-11-12T16:45:59.791492+00:00,8.235000,-0.025840,
2025-11-12T16:45:59.796492+00:00,8.240000,-0.028880,
2025-11-12T16:45:59.801491+00:00,8.245000,-0.034580,
2025-11-12T16:45:59.806492+00:00,8.250000,-0.035720,
2025-11-12T16:45:59.811492+00:00,8.255000,-0.033060,
2025-11-12T16:45:59.816492+00:00,8.260000,-0.030400,
2025-11-12T16:45:59.821492+00:00,8.265000,-0.030400,
2025-11-12T16:45:59.826492+00:00,8.270000,-0.035340,
2025-11-12T16:45:59.831492+00:00,8.275000,-0.038760,
2025-11-12T16:45:59.836492+00:00,8.280000,-0.037620,
2025-11-12T16:45:59.841492+00:00,8.285000,-0.033060,
2025-11-12T16:45:59.846492+00:00,8.290000,-0.031160,
2025-11-12T16:45:59.851492+00:00,8.295000,-0.033820,
2025-11-12T16:45:59.856492+00:00,8.300000,-0.038000,
2025-11-12T16:45:59.861492+00:00,8.305000,-0.038760,
2025-11-12T16:45:59.866492+00:00,8.310000,-0.034200,
2025-11-12T16:45:59.871492+00:00,8.315000,-0.028500,
2025-11-12T16:45:59.876492+00:00,8.320000,-0.022800,
2025-11-12T16:45:59.881492+00:00,8.325000,-0.018620,
2025-11-12T16:45:59.886492+00:00,8.330000,-0.015200,
2025-11-12T16:45:59.891492+00:00,8.335000,-0.014060,
2025-11-12T16:45:59.896492+00:00,8.340000,-0.016720,
2025-11-12T16:45:59.901492+00:00,8.345000,-0.023180,
2025-11-12T16:45:59.906492+00:00,8.350000,-0.030400,
2025-11-12T16:45:59.911492+00:00,8.355000,-0.036860,
2025-11-12T16:45:59.916492+00:00,8.360000,-0.039140,
2025-11-12T16:45:59.921492+00:00,8.365000,-0.034960,
2025-11-12T16:45:59.926491+00:00,8.370000,-0.030780,
2025-11-12T16:45:59.931492+00:00,8.375000,-0.033820,
2025-11-12T16:45:59.936492+00:00,8.380000,-0.041040,
2025-11-12T16:45:59.941492+00:00,8.385000,-0.047500,
2025-11-12T16:45:59.946492+00:00,8.390000,-0.055100,
2025-11-12T16:45:59.951492+00:00,8.395000,-0.059280,
2025-11-12T16:45:59.956492+00:00,8.400000,-0.058900,
2025-11-12T16:45:59.961492+00:00,8.405000,-0.051300,
2025-11-12T16:45:59.966492+00:00,8.410000,-0.043700,
2025-11-12T16:45:59.971492+00:00,8.415000,-0.041420,
2025-11-12T16:45:59.976492+00:00,8.420000,-0.044080,
2025-11-12T16:45:59.981492+00:00,8.425000,-0.045220,
2025-11-12T16:45:59.986492+00:00,8.430000,-0.044460,
2025-11-12T16:45:59.991492+00:00,8.435000,-0.039900,
2025-11-12T16:45:59.996492+00:00,8.440000,-0.034960,
2025-11-12T16:46:00.001492+00:00,8.445000,-0.032300,
2025-11-12T16:46:00.006492+00:00,8.450000,-0.032680,
2025-11-12T16:46:00.011492+00:00,8.455000,-0.033440,
2025-11-12T16:46:00.016492+00:00,8.460000,-0.034960,
2025-11-12T16:46:00.021492+00:00,8.465000,-0.029640,
2025-11-12T16:46:00.026492+00:00,8.470000,-0.012160,
2025-11-12T16:46:00.031492+00:00,8.475000,0.023560,
2025-11-12T16:46:00.036492+00:00,8.480000,0.063080,
2025-11-12T16:46:00.041492+00:00,8.485000,0.109440,
2025-11-12T16:46:00.046492+00:00,8.490000,0.209380,
2025-11-12T16:46:00.051491+00:00,8.495000,0.373160,
2025-11-12T16:46:00.056492+00:00,8.500000,0.463600,
2025-11-12T16:46:00.061492+00:00,8.505000,0.310460,
2025-11-12T16:46:00.066492+00:00,8.510000,-0.053200,
2025-11-12T16:46:00.071492+00:00,8.515000,-0.385320,
2025-11-12T16:46:00.076492+00:00,8.520000,-0.477280,
2025-11-12T16:46:00.081492+00:00,8.525000,-0.365180,
2025-11-12T16:46:00.086492+00:00,8.530000,-0.229900,
2025-11-12T16:46:00.091492+00:00,8.535000,-0.168340,
2025-11-12T16:46:00.096492+00:00,8.540000,-0.147060,
2025-11-12T16:46:00.101492+00:00,8.545000,-0.121600,
2025-11-12T16:46:00.106492+00:00,8.550000,-0.095760,
2025-11-12T16:46:00.111492+00:00,8.555000,-0.077520,
2025-11-12T16:46:00.116492+00:00,8.560000,-0.063840,
2025-11-12T16:46:00.121492+00:00,8.565000,-0.055480,
2025-11-12T16:46:00.126492+00:00,8.570000,-0.052440,
2025-11-12T16:46:00.131492+00:00,8.575000,-0.050160,
2025-11-12T16:46:00.136492+00:00,8.580000,-0.045220,
2025-11-12T16:46:00.141492+00:00,8.585000,-0.039140,
2025-11-12T16:46:00.146492+00:00,8.590000,-0.033820,
2025-11-12T16:46:00.151492+00:00,8.595000,-0.033060,
2025-11-12T16:46:00.156492+00:00,8.600000,-0.032680,
2025-11-12T16:46:00.161492+00:00,8.605000,-0.032300,
2025-11-12T16:46:00.166492+00:00,8.610000,-0.030020,
2025-11-12T16:46:00.171492+00:00,8.615000,-0.027360,
2025-11-12T16:46:00.176491+00:00,8.620000,-0.026220,
2025-11-12T16:46:00.181492+00:00,8.625000,-0.025080,
2025-11-12T16:46:00.186492+00:00,8.630000,-0.023940,
2025-11-12T16:46:00.191492+00:00,8.635000,-0.022420,
2025-11-12T16:46:00.196492+00:00,8.640000,-0.021660,
2025-11-12T16:46:00.201492+00:00,8.645000,-0.022800,
2025-11-12T16:46:00.206492+00:00,8.650000,-0.024320,
2025-11-12T16:46:00.211492+00:00,8.655000,-0.023940,
2025-11-12T16:46:00.216492+00:00,8.660000,-0.022040,
2025-11-12T16:46:00.221492+00:00,8.665000,-0.016720,
2025-11-12T16:46:00.226492+00:00,8.670000,-0.013300,
2025-11-12T16:46:00.231492+00:00,8.675000,-0.010260,
2025-11-12T16:46:00.236492+00:00,8.680000,-0.011020,
2025-11-12T16:46:00.241492+00:00,8.685000,-0.007600,
2025-11-12T16:46:00.246492+00:00,8.690000,-0.001520,
2025-11-12T16:46:00.251492+00:00,8.695000,0.002280,
2025-11-12T16:46:00.256492+00:00,8.700000,0.004560,
2025-11-12T16:46:00.261492+00:00,8.705000,0.007980,
2025-11-12T16:46:00.266492+00:00,8.710000,0.011400,
2025-11-12T16:46:00.271492+00:00,8.715000,0.014060,
2025-11-12T16:46:00.276492+00:00,8.720000,0.013680,
2025-11-12T16:46:00.281492+00:00,8.725000,0.013300,
2025-11-12T16:46:00.286492+00:00,8.730000,0.013680,
2025-11-12T16:46:00.291492+00:00,8.735000,0.012920,
2025-11-12T16:46:00.296492+00:00,8.740000,0.006840,
2025-11-12T16:46:00.301491+00:00,8.745000,-0.002660,
2025-11-12T16:46:00.306492+00:00,8.750000,-0.011780,
2025-11-12T16:46:00.311492+00:00,8.755000,-0.018620,
2025-11-12T16:46:00.316492+00:00,8.760000,-0.028500,
2025-11-12T16:46:00.321492+00:00,8.765000,-0.039900,
2025-11-12T16:46:00.326492+00:00,8.770000,-0.056240,
2025-11-12T16:46:00.331492+00:00,8.775000,-0.073340,
2025-11-12T16:46:00.336492+00:00,8.780000,-0.093100,
2025-11-12T16:46:00.341492+00:00,8.785000,-0.110200,
2025-11-12T16:46:00.346492+00:00,8.790000,-0.122740,
2025-11-12T16:46:00.351492+00:00,8.795000,-0.125400,
2025-11-12T16:46:00.356492+00:00,8.800000,-0.123500,
2025-11-12T16:46:00.361492+00:00,8.805000,-0.118180,
2025-11-12T16:46:00.366492+00:00,8.810000,-0.115520,
2025-11-12T16:46:00.371492+00:00,8.815000,-0.111340,
2025-11-12T16:46:00.376492+00:00,8.820000,-0.104120,
2025-11-12T16:46:00.381492+00:00,8.825000,-0.096900,
2025-11-12T16:46:00.386492+00:00,8.830000,-0.087020,
2025-11-12T16:46:00.391492+00:00,8.835000,-0.079420,
2025-11-12T16:46:00.396492+00:00,8.840000,-0.073720,
2025-11-12T16:46:00.401492+00:00,8.845000,-0.069160,
2025-11-12T16:46:00.406492+00:00,8.850000,-0.060800,
2025-11-12T16:46:00.411492+00:00,8.855000,-0.049780,
2025-11-12T16:46:00.416492+00:00,8.860000,-0.042560,
2025-11-12T16:46:00.421492+00:00,8.865000,-0.042560,
2025-11-12T16:46:00.426491+00:00,8.870000,-0.045220,
2025-11-12T16:46:00.431492+00:00,8.875000,-0.042940,
2025-11-12T16:46:00.436492+00:00,8.880000,-0.036100,
2025-11-12T16:46:00.441492+00:00,8.885000,-0.030400,
2025-11-12T16:46:00.446492+00:00,8.890000,-0.029260,
2025-11-12T16:46:00.451492+00:00,8.895000,-0.031920,
2025-11-12T16:46:00.456492+00:00,8.900000,-0.033060,
2025-11-12T16:46:00.461492+00:00,8.905000,-0.030400,
2025-11-12T16:46:00.466492+00:00,8.910000,-0.026980,
2025-11-12T16:46:00.471492+00:00,8.915000,-0.025080,
2025-11-12T16:46:00.476492+00:00,8.920000,-0.025460,
2025-11-12T16:46:00.481492+00:00,8.925000,-0.026980,
2025-11-12T16:46:00.486492+00:00,8.930000,-0.028500,
2025-11-12T16:46:00.491492+00:00,8.935000,-0.026220,
2025-11-12T16:46:00.496492+00:00,8.940000,-0.026600,
2025-11-12T16:46:00.501492+00:00,8.945000,-0.028880,
2025-11-12T16:46:00.506492+00:00,8.950000,-0.032300,
2025-11-12T16:46:00.511492+00:00,8.955000,-0.030780,
2025-11-12T16:46:00.516492+00:00,8.960000,-0.026220,
2025-11-12T16:46:00.521492+00:00,8.965000,-0.025080,
2025-11-12T16:46:00.526492+00:00,8.970000,-0.028880,
2025-11-12T16:46:00.531492+00:00,8.975000,-0.036100,
2025-11-12T16:46:00.536492+00:00,8.980000,-0.036480,
2025-11-12T16:46:00.541492+00:00,8.985000,-0.031160,
2025-11-12T16:46:00.546492+00:00,8.990000,-0.025080,
2025-11-12T16:46:00.551491+00:00,8.995000,-0.026220,
2025-11-12T16:46:00.556492+00:00,9.000000,-0.033060,
2025-11-12T16:46:00.561492+00:00,9.005000,-0.039900,
2025-11-12T16:46:00.566492+00:00,9.010000,-0.038380,
2025-11-12T16:46:00.571492+00:00,9.015000,-0.034580,
2025-11-12T16:46:00.576492+00:00,9.020000,-0.032680,
2025-11-12T16:46:00.581492+00:00,9.025000,-0.034200,
2025-11-12T16:46:00.586492+00:00,9.030000,-0.033820,
2025-11-12T16:46:00.591492+00:00,9.035000,-0.033440,
2025-11-12T16:46:00.596492+00:00,9.040000,-0.031540,
2025-11-12T16:46:00.601492+00:00,9.045000,-0.033060,
2025-11-12T16:46:00.606492+00:00,9.050000,-0.032680,
2025-11-12T16:46:00.611492+00:00,9.055000,-0.031160,
2025-11-12T16:46:00.616492+00:00,9.060000,-0.031160,
2025-11-12T16:46:00.621492+00:00,9.065000,-0.031920,
2025-11-12T16:46:00.626492+00:00,9.070000,-0.033820,
2025-11-12T16:46:00.631492+00:00,9.075000,-0.036100,
2025-11-12T16:46:00.636492+00:00,9.080000,-0.037240,
2025-11-12T16:46:00.641492+00:00,9.085000,-0.035340,
2025-11-12T16:46:00.646492+00:00,9.090000,-0.029260,
2025-11-12T16:46:00.651492+00:00,9.095000,-0.021660,
2025-11-12T16:46:00.656492+00:00,9.100000,-0.015960,
2025-11-12T16:46:00.661492+00:00,9.105000,-0.012540,
2025-11-12T16:46:00.666492+00:00,9.110000,-0.011780,
2025-11-12T16:46:00.671492+00:00,9.115000,-0.014820,
2025-11-12T16:46:00.676491+00:00,9.120000,-0.020900,
2025-11-12T16:46:00.681492+00:00,9.125000,-0.026220,
2025-11-12T16:46:00.686492+00:00,9.130000,-0.028120,
2025-11-12T16:46:00.691492+00:00,9.135000,-0.025840,
2025-11-12T16:46:00.696492+00:00,9.140000,-0.024700,
2025-11-12T16:46:00.701492+00:00,9.145000,-0.025840,
2025-11-12T16:46:00.706492+00:00,9.150000,-0.028880,
2025-11-12T16:46:00.711492+00:00,9.155000,-0.034960,
2025-11-12T16:46:00.716492+00:00,9.160000,-0.045220,
2025-11-12T16:46:00.721492+00:00,9.165000,-0.055480,
2025-11-12T16:46:00.726492+00:00,9.170000,-0.059660,
2025-11-12T16:46:00.731492+00:00,9.175000,-0.055480,
2025-11-12T16:46:00.736492+00:00,9.180000,-0.049400,
2025-11-12T16:46:00.741492+00:00,9.185000,-0.043320,
2025-11-12T16:46:00.746492+00:00,9.190000,-0.041040,
2025-11-12T16:46:00.751492+00:00,9.195000,-0.040660,
2025-11-12T16:46:00.756492+00:00,9.200000,-0.038760,
2025-11-12T16:46:00.761492+00:00,9.205000,-0.037620,
2025-11-12T16:46:00.766492+00:00,9.210000,-0.035340,
2025-11-12T16:46:00.771492+00:00,9.215000,-0.031920,
2025-11-12T16:46:00.776492+00:00,9.220000,-0.031540,
2025-11-12T16:46:00.781492+00:00,9.225000,-0.030400,
2025-11-12T16:46:00.786492+00:00,9.230000,-0.030400,
2025-11-12T16:46:00.791492+00:00,9.235000,-0.031540,
2025-11-12T16:46:00.796492+00:00,9.240000,-0.029640,
2025-11-12T16:46:00.801491+00:00,9.245000,-0.021280,
2025-11-12T16:46:00.806492+00:00,9.250000,0.000380,
2025-11-12T16:46:00.811492+00:00,9.255000,0.039520,
2025-11-12T16:46:00.816492+00:00,9.260000,0.082460,
2025-11-12T16:46:00.821492+00:00,9.265000,0.123120,
2025-11-12T16:46:00.826492+00:00,9.270000,0.196460,
2025-11-12T16:46:00.831492+00:00,9.275000,0.311220,
2025-11-12T16:46:00.836492+00:00,9.280000,0.353400,
2025-11-12T16:46:00.841492+00:00,9.285000,0.196840,
2025-11-12T16:46:00.846492+00:00,9.290000,-0.114760,
2025-11-12T16:46:00.851492+00:00,9.295000,-0.372400,
2025-11-12T16:46:00.856492+00:00,9.300000,-0.416480,
2025-11-12T16:46:00.861492+00:00,9.305000,-0.294500,
2025-11-12T16:46:00.866492+00:00,9.310000,-0.172520,
2025-11-12T16:46:00.871492+00:00,9.315000,-0.123120,
2025-11-12T16:46:00.876492+00:00,9.320000,-0.106400,
2025-11-12T16:46:00.881492+00:00,9.325000,-0.088160,
2025-11-12T16:46:00.886492+00:00,9.330000,-0.071060,
2025-11-12T16:46:00.891492+00:00,9.335000,-0.058140,
2025-11-12T16:46:00.896492+00:00,9.340000,-0.048260,
2025-11-12T16:46:00.901492+00:00,9.345000,-0.042940,
2025-11-12T16:46:00.906492+00:00,9.350000,-0.039140,
2025-11-12T16:46:00.911492+00:00,9.355000,-0.036480,
2025-11-12T16:46:00.916492+00:00,9.360000,-0.033060,
2025-11-12T16:46:00.921492+00:00,9.365000,-0.030780,
2025-11-12T16:46:00.926491+00:00,9.370000,-0.028880,
2025-11-12T16:46:00.931492+00:00,9.375000,-0.027360,
2025-11-12T16:46:00.936492+00:00,9.380000,-0.025460,
2025-11-12T16:46:00.941492+00:00,9.385000,-0.022420,
2025-11-12T16:46:00.946492+00:00,9.390000,-0.022420,
2025-11-12T16:46:00.951492+00:00,9.395000,-0.023940,
2025-11-12T16:46:00.956492+00:00,9.400000,-0.024320,
2025-11-12T16:46:00.961492+00:00,9.405000,-0.022800,
2025-11-12T16:46:00.966492+00:00,9.410000,-0.021660,
2025-11-12T16:46:00.971492+00:00,9.415000,-0.022040,
2025-11-12T16:46:00.976492+00:00,9.420000,-0.020900,
2025-11-12T16:46:00.981492+00:00,9.425000,-0.019000,
2025-11-12T16:46:00.986492+00:00,9.430000,-0.017860,
2025-11-12T16:46:00.991492+00:00,9.435000,-0.017860,
2025-11-12T16:46:00.996492+00:00,9.440000,-0.017480,
2025-11-12T16:46:01.001492+00:00,9.445000,-0.014820,
2025-11-12T16:46:01.006492+00:00,9.450000,-0.010260,
2025-11-12T16:46:01.011492+00:00,9.455000,-0.005700,
2025-11-12T16:46:01.016492+00:00,9.460000,-0.004180,
2025-11-12T16:46:01.021492+00:00,9.465000,-0.003800,
2025-11-12T16:46:01.026492+00:00,9.470000,-0.003420,
2025-11-12T16:46:01.031492+00:00,9.475000,0.000380,
2025-11-12T16:46:01.036492+00:00,9.480000,0.005320,
2025-11-12T16:46:01.041492+00:00,9.485000,0.010640,
2025-11-12T16:46:01.046492+00:00,9.490000,0.014060,
2025-11-12T16:46:01.051491+00:00,9.495000,0.015960,
2025-11-12T16:46:01.056492+00:00,9.500000,0.017860,
2025-11-12T16:46:01.061492+00:00,9.505000,0.019000,
2025-11-12T16:46:01.066492+00:00,9.510000,0.016340,
2025-11-12T16:46:01.071492+00:00,9.515000,0.011780,
2025-11-12T16:46:01.076492+00:00,9.520000,0.005700,
2025-11-12T16:46:01.081492+00:00,9.525000,-0.002280,
2025-11-12T16:46:01.086492+00:00,9.530000,-0.011400,
2025-11-12T16:46:01.091492+00:00,9.535000,-0.019380,
2025-11-12T16:46:01.096492+00:00,9.540000,-0.027740,
2025-11-12T16:46:01.101492+00:00,9.545000,-0.039520,
2025-11-12T16:46:01.106492+00:00,9.550000,-0.057760,
2025-11-12T16:46:01.111492+00:00,9.555000,-0.081320,
2025-11-12T16:46:01.116492+00:00,9.560000,-0.104500,
2025-11-12T16:46:01.121492+00:00,9.565000,-0.120460,
2025-11-12T16:46:01.126492+00:00,9.570000,-0.128060,
2025-11-12T16:46:01.131492+00:00,9.575000,-0.129960,
2025-11-12T16:46:01.136492+00:00,9.580000,-0.128440,
2025-11-12T16:46:01.141492+00:00,9.585000,-0.125780,
2025-11-12T16:46:01.146492+00:00,9.590000,-0.119320,
2025-11-12T16:46:01.151492+00:00,9.595000,-0.110200,
2025-11-12T16:46:01.156492+00:00,9.600000,-0.099940,
2025-11-12T16:46:01.161492+00:00,9.605000,-0.089300,
2025-11-12T16:46:01.166492+00:00,9.610000,-0.081320,
2025-11-12T16:46:01.171492+00:00,9.615000,-0.076380,
2025-11-12T16:46:01.176491+00:00,9.620000,-0.069160,
2025-11-12T16:46:01.181492+00:00,9.625000,-0.059660,
2025-11-12T16:46:01.186492+00:00,9.630000,-0.052060,
2025-11-12T16:46:01.191492+00:00,9.635000,-0.047120,
2025-11-12T16:46:01.196492+00:00,9.640000,-0.045220,
2025-11-12T16:46:01.201492+00:00,9.645000,-0.042560,
2025-11-12T16:46:01.206492+00:00,9.650000,-0.038380,
2025-11-12T16:46:01.211492+00:00,9.655000,-0.034580,
2025-11-12T16:46:01.216492+00:00,9.660000,-0.033060,
2025-11-12T16:46:01.221492+00:00,9.665000,-0.032300,
2025-11-12T16:46:01.226492+00:00,9.670000,-0.030780,
2025-11-12T16:46:01.231492+00:00,9.675000,-0.029260,
2025-11-12T16:46:01.236492+00:00,9.680000,-0.027360,
2025-11-12T16:46:01.241492+00:00,9.685000,-0.025080,
2025-11-12T16:46:01.246492+00:00,9.690000,-0.023940,
2025-11-12T16:46:01.251492+00:00,9.695000,-0.022420,
2025-11-12T16:46:01.256492+00:00,9.700000,-0.022800,
2025-11-12T16:46:01.261492+00:00,9.705000,-0.023180,
2025-11-12T16:46:01.266492+00:00,9.710000,-0.023940,
2025-11-12T16:46:01.271492+00:00,9.715000,-0.023940,
2025-11-12T16:46:01.276492+00:00,9.720000,-0.023940,
2025-11-12T16:46:01.281492+00:00,9.725000,-0.022800,
2025-11-12T16:46:01.286492+00:00,9.730000,-0.024320,
2025-11-12T16:46:01.291492+00:00,9.735000,-0.026980,
2025-11-12T16:46:01.296492+00:00,9.740000,-0.031540,
2025-11-12T16:46:01.301491+00:00,9.745000,-0.034580,
2025-11-12T16:46:01.306492+00:00,9.750000,-0.036100,
2025-11-12T16:46:01.311492+00:00,9.755000,-0.034200,
2025-11-12T16:46:01.316492+00:00,9.760000,-0.032680,
2025-11-12T16:46:01.321492+00:00,9.765000,-0.031160,
2025-11-12T16:46:01.326492+00:00,9.770000,-0.033440,
2025-11-12T16:46:01.331492+00:00,9.775000,-0.034200,
2025-11-12T16:46:01.336492+00:00,9.780000,-0.034580,
2025-11-12T16:46:01.341492+00:00,9.785000,-0.036480,
2025-11-12T16:46:01.346492+00:00,9.790000,-0.039900,
2025-11-12T16:46:01.351492+00:00,9.795000,-0.041800,
2025-11-12T16:46:01.356492+00:00,9.800000,-0.039900,
2025-11-12T16:46:01.361492+00:00,9.805000,-0.036860,
2025-11-12T16:46:01.366492+00:00,9.810000,-0.033440,
2025-11-12T16:46:01.371492+00:00,9.815000,-0.033820,
2025-11-12T16:46:01.376492+00:00,9.820000,-0.035720,
2025-11-12T16:46:01.381492+00:00,9.825000,-0.035720,
2025-11-12T16:46:01.386492+00:00,9.830000,-0.035340,
2025-11-12T16:46:01.391492+00:00,9.835000,-0.034960,
2025-11-12T16:46:01.396492+00:00,9.840000,-0.034200,
2025-11-12T16:46:01.401492+00:00,9.845000,-0.034200,
2025-11-12T16:46:01.406492+00:00,9.850000,-0.033440,
2025-11-12T16:46:01.411492+00:00,9.855000,-0.031540,
2025-11-12T16:46:01.416492+00:00,9.860000,-0.031540,
2025-11-12T16:46:01.421492+00:00,9.865000,-0.032300,
2025-11-12T16:46:01.426491+00:00,9.870000,-0.033060,
2025-11-12T16:46:01.431492+00:00,9.875000,-0.031920,
2025-11-12T16:46:01.436492+00:00,9.880000,-0.032680,
2025-11-12T16:46:01.441492+00:00,9.885000,-0.034960,
2025-11-12T16:46:01.446492+00:00,9.890000,-0.038760,
2025-11-12T16:46:01.451492+00:00,9.895000,-0.040280,
2025-11-12T16:46:01.456492+00:00,9.900000,-0.038760,
2025-11-12T16:46:01.461492+00:00,9.905000,-0.036860,
2025-11-12T16:46:01.466492+00:00,9.910000,-0.036100,
2025-11-12T16:46:01.471492+00:00,9.915000,-0.036480,
2025-11-12T16:46:01.476492+00:00,9.920000,-0.037240,
2025-11-12T16:46:01.481492+00:00,9.925000,-0.037620,
2025-11-12T16:46:01.486492+00:00,9.930000,-0.034580,
2025-11-12T16:46:01.491492+00:00,9.935000,-0.028120,
2025-11-12T16:46:01.496492+00:00,9.940000,-0.020900,
2025-11-12T16:46:01.501492+00:00,9.945000,-0.015200,
2025-11-12T16:46:01.506492+00:00,9.950000,-0.013300,
2025-11-12T16:46:01.511492+00:00,9.955000,-0.016340,
2025-11-12T16:46:01.516492+00:00,9.960000,-0.022800,
2025-11-12T16:46:01.521492+00:00,9.965000,-0.029260,
2025-11-12T16:46:01.526492+00:00,9.970000,-0.030780,
2025-11-12T16:46:01.531492+00:00,9.975000,-0.026600,
2025-11-12T16:46:01.536492+00:00,9.980000,-0.023940,
2025-11-12T16:46:01.541492+00:00,9.985000,-0.027360,
2025-11-12T16:46:01.546492+00:00,9.990000,-0.034580,
2025-11-12T16:46:01.551491+00:00,9.995000,-0.042180,
2025-11-12T16:46:01.556492+00:00,10.000000,-0.047120,
2025-11-12T16:46:01.561492+00:00,10.005000,-0.051300,
2025-11-12T16:46:01.566492+00:00,10.010000,-0.053960,
2025-11-12T16:46:01.571492+00:00,10.015000,-0.055480,
2025-11-12T16:46:01.576492+00:00,10.020000,-0.053200,
2025-11-12T16:46:01.581492+00:00,10.025000,-0.048640,
2025-11-12T16:46:01.586492+00:00,10.030000,-0.044080,
2025-11-12T16:46:01.591492+00:00,10.035000,-0.042940,
2025-11-12T16:46:01.596492+00:00,10.040000,-0.043320,
2025-11-12T16:46:01.601492+00:00,10.045000,-0.043320,
2025-11-12T16:46:01.606492+00:00,10.050000,-0.041040,
2025-11-12T16:46:01.611492+00:00,10.055000,-0.037620,
2025-11-12T16:46:01.616492+00:00,10.060000,-0.036480,
2025-11-12T16:46:01.621492+00:00,10.065000,-0.034200,
2025-11-12T16:46:01.626492+00:00,10.070000,-0.031160,
2025-11-12T16:46:01.631492+00:00,10.075000,-0.029640,
2025-11-12T16:46:01.636492+00:00,10.080000,-0.027360,
2025-11-12T16:46:01.641492+00:00,10.085000,-0.019380,
2025-11-12T16:46:01.646492+00:00,10.090000,0.003420,
2025-11-12T16:46:01.651492+00:00,10.095000,0.038760,
2025-11-12T16:46:01.656492+00:00,10.100000,0.070300,
2025-11-12T16:46:01.661492+00:00,10.105000,0.112100,
2025-11-12T16:46:01.666492+00:00,10.110000,0.222300,
2025-11-12T16:46:01.671492+00:00,10.115000,0.397480,
2025-11-12T16:46:01.676491+00:00,10.120000,0.479940,
2025-11-12T16:46:01.681492+00:00,10.125000,0.302100,
2025-11-12T16:46:01.686492+00:00,10.130000,-0.079800,
2025-11-12T16:46:01.691492+00:00,10.135000,-0.405460,
2025-11-12T16:46:01.696492+00:00,10.140000,-0.480700,
2025-11-12T16:46:01.701492+00:00,10.145000,-0.366320,
2025-11-12T16:46:01.706492+00:00,10.150000,-0.240540,
2025-11-12T16:46:01.711492+00:00,10.155000,-0.185820,
2025-11-12T16:46:01.716492+00:00,10.160000,-0.158460,
2025-11-12T16:46:01.721492+00:00,10.165000,-0.126540,
2025-11-12T16:46:01.726492+00:00,10.170000,-0.098800,
2025-11-12T16:46:01.731492+00:00,10.175000,-0.081700,
2025-11-12T16:46:01.736492+00:00,10.180000,-0.070300,
2025-11-12T16:46:01.741492+00:00,10.185000,-0.058900,
2025-11-12T16:46:01.746492+00:00,10.190000,-0.049780,
2025-11-12T16:46:01.751492+00:00,10.195000,-0.043320,
2025-11-12T16:46:01.756492+00:00,10.200000,-0.039900,
2025-11-12T16:46:01.761492+00:00,10.205000,-0.036860,
2025-11-12T16:46:01.766492+00:00,10.210000,-0.034580,
2025-11-12T16:46:01.771492+00:00,10.215000,-0.034580,
2025-11-12T16:46:01.776492+00:00,10.220000,-0.033440,
2025-11-12T16:46:01.781492+00:00,10.225000,-0.032300,
2025-11-12T16:46:01.786492+00:00,10.230000,-0.028880,
2025-11-12T16:46:01.791492+00:00,10.235000,-0.026220,
2025-11-12T16:46:01.796492+00:00,10.240000,-0.025080,
2025-11-12T16:46:01.801491+00:00,10.245000,-0.026980,
2025-11-12T16:46:01.806492+00:00,10.250000,-0.027360,
2025-11-12T16:46:01.811492+00:00,10.255000,-0.023940,
2025-11-12T16:46:01.816492+00:00,10.260000,-0.020140,
2025-11-12T16:46:01.821492+00:00,10.265000,-0.019000,
2025-11-12T16:46:01.826492+00:00,10.270000,-0.020900,
2025-11-12T16:46:01.831492+00:00,10.275000,-0.022800,
2025-11-12T16:46:01.836492+00:00,10.280000,-0.022420,
2025-11-12T16:46:01.841492+00:00,10.285000,-0.019380,
2025-11-12T16:46:01.846492+00:00,10.290000,-0.015960,
2025-11-12T16:46:01.851492+00:00,10.295000,-0.014440,
2025-11-12T16:46:01.856492+00:00,10.300000,-0.012920,
2025-11-12T16:46:01.861492+00:00,10.305000,-0.010260,
2025-11-12T16:46:01.866492+00:00,10.310000,-0.003800,
2025-11-12T16:46:01.871492+00:00,10.315000,0.001900,
2025-11-12T16:46:01.876492+00:00,10.320000,0.003800,
2025-11-12T16:46:01.881492+00:00,10.325000,0.001520,
2025-11-12T16:46:01.886492+00:00,10.330000,0.001140,
2025-11-12T16:46:01.891492+00:00,10.335000,0.004940,
2025-11-12T16:46:01.896492+00:00,10.340000,0.009880,
2025-11-12T16:46:01.901492+00:00,10.345000,0.012540,
2025-11-12T16:46:01.906492+00:00,10.350000,0.010640,
2025-11-12T16:46:01.911492+00:00,10.355000,0.006840,
2025-11-12T16:46:01.916492+00:00,10.360000,0.000760,
2025-11-12T16:46:01.921492+00:00,10.365000,-0.006840,
2025-11-12T16:46:01.926491+00:00,10.370000,-0.013300,
2025-11-12T16:46:01.931492+00:00,10.375000,-0.021660,
2025-11-12T16:46:01.936492+00:00,10.380000,-0.031540,
2025-11-12T16:46:01.941492+00:00,10.385000,-0.041800,
2025-11-12T16:46:01.946492+00:00,10.390000,-0.054720,
2025-11-12T16:46:01.951492+00:00,10.395000,-0.071060,
2025-11-12T16:46:01.956492+00:00,10.400000,-0.090440,
2025-11-12T16:46:01.961492+00:00,10.405000,-0.106020,
2025-11-12T16:46:01.966492+00:00,10.410000,-0.113620,
2025-11-12T16:46:01.971492+00:00,10.415000,-0.115900,
2025-11-12T16:46:01.976492+00:00,10.420000,-0.115140,
2025-11-12T16:46:01.981492+00:00,10.425000,-0.115140,
2025-11-12T16:46:01.986492+00:00,10.430000,-0.111340,
2025-11-12T16:46:01.991492+00:00,10.435000,-0.106020,
2025-11-12T16:46:01.996492+00:00,10.440000,-0.096900,
2025-11-12T16:46:02.001492+00:00,10.445000,-0.088540,
2025-11-12T16:46:02.006492+00:00,10.450000,-0.079420,
2025-11-12T16:46:02.011492+00:00,10.455000,-0.072200,
2025-11-12T16:46:02.016492+00:00,10.460000,-0.064600,
2025-11-12T16:46:02.021492+00:00,10.465000,-0.056620,
2025-11-12T16:46:02.026492+00:00,10.470000,-0.048640,
2025-11-12T16:46:02.031492+00:00,10.475000,-0.044080,
2025-11-12T16:46:02.036492+00:00,10.480000,-0.042940,
2025-11-12T16:46:02.041492+00:00,10.485000,-0.043700,
2025-11-12T16:46:02.046492+00:00,10.490000,-0.041040,
2025-11-12T16:46:02.051491+00:00,10.495000,-0.038000,
2025-11-12T16:46:02.056492+00:00,10.500000,-0.038000,
2025-11-12T16:46:02.061492+00:00,10.505000,-0.038760,
2025-11-12T16:46:02.066492+00:00,10.510000,-0.036100,
2025-11-12T16:46:02.071492+00:00,10.515000,-0.031920,
2025-11-12T16:46:02.076492+00:00,10.520000,-0.026600,
2025-11-12T16:46:02.081492+00:00,10.525000,-0.027360,
2025-11-12T16:46:02.086492+00:00,10.530000,-0.030020,
2025-11-12T16:46:02.091492+00:00,10.535000,-0.033440,
2025-11-12T16:46:02.096492+00:00,10.540000,-0.034580,
2025-11-12T16:46:02.101492+00:00,10.545000,-0.035340,
2025-11-12T16:46:02.106492+00:00,10.550000,-0.035720,
2025-11-12T16:46:02.111492+00:00,10.555000,-0.037240,
2025-11-12T16:46:02.116492+00:00,10.560000,-0.036100,
2025-11-12T16:46:02.121492+00:00,10.565000,-0.033060,
2025-11-12T16:46:02.126492+00:00,10.570000,-0.028880,
2025-11-12T16:46:02.131492+00:00,10.575000,-0.026980,
2025-11-12T16:46:02.136492+00:00,10.580000,-0.027360,
2025-11-12T16:46:02.141492+00:00,10.585000,-0.030400,
2025-11-12T16:46:02.146492+00:00,10.590000,-0.036100,
2025-11-12T16:46:02.151492+00:00,10.595000,-0.039900,
2025-11-12T16:46:02.156492+00:00,10.600000,-0.038760,
2025-11-12T16:46:02.161492+00:00,10.605000,-0.034200,
2025-11-12T16:46:02.166492+00:00,10.610000,-0.032680,
2025-11-12T16:46:02.171492+00:00,10.615000,-0.034200,
2025-11-12T16:46:02.176491+00:00,10.620000,-0.038380,
2025-11-12T16:46:02.181492+00:00,10.625000,-0.039140,
2025-11-12T16:46:02.186492+00:00,10.630000,-0.037240,
2025-11-12T16:46:02.191492+00:00,10.635000,-0.036100,
2025-11-12T16:46:02.196492+00:00,10.640000,-0.036480,
2025-11-12T16:46:02.201492+00:00,10.645000,-0.039520,
2025-11-12T16:46:02.206492+00:00,10.650000,-0.042180,
2025-11-12T16:46:02.211492+00:00,10.655000,-0.040660,
2025-11-12T16:46:02.216492+00:00,10.660000,-0.035720,
2025-11-12T16:46:02.221492+00:00,10.665000,-0.033820,
2025-11-12T16:46:02.226492+00:00,10.670000,-0.037240,
2025-11-12T16:46:02.231492+00:00,10.675000,-0.041420,
2025-11-12T16:46:02.236492+00:00,10.680000,-0.040280,
2025-11-12T16:46:02.241492+00:00,10.685000,-0.034580,
2025-11-12T16:46:02.246492+00:00,10.690000,-0.032680,
2025-11-12T16:46:02.251492+00:00,10.695000,-0.034200,
2025-11-12T16:46:02.256492+00:00,10.700000,-0.036480,
2025-11-12T16:46:02.261492+00:00,10.705000,-0.035340,
2025-11-12T16:46:02.266492+00:00,10.710000,-0.036100,
2025-11-12T16:46:02.271492+00:00,10.715000,-0.037620,
2025-11-12T16:46:02.276492+00:00,10.720000,-0.038760,
2025-11-12T16:46:02.281492+00:00,10.725000,-0.037240,
2025-11-12T16:46:02.286492+00:00,10.730000,-0.035720,
2025-11-12T16:46:02.291492+00:00,10.735000,-0.036100,
2025-11-12T16:46:02.296492+00:00,10.740000,-0.038380,
2025-11-12T16:46:02.301491+00:00,10.745000,-0.040280,
2025-11-12T16:46:02.306492+00:00,10.750000,-0.041800,
2025-11-12T16:46:02.311492+00:00,10.755000,-0.045220,
2025-11-12T16:46:02.316492+00:00,10.760000,-0.048640,
2025-11-12T16:46:02.321492+00:00,10.765000,-0.045600,
2025-11-12T16:46:02.326492+00:00,10.770000,-0.036100,
2025-11-12T16:46:02.331492+00:00,10.775000,-0.026220,
2025-11-12T16:46:02.336492+00:00,10.780000,-0.018240,
2025-11-12T16:46:02.341492+00:00,10.785000,-0.012540,
2025-11-12T16:46:02.346492+00:00,10.790000,-0.010640,
2025-11-12T16:46:02.351492+00:00,10.795000,-0.017100,
2025-11-12T16:46:02.356492+00:00,10.800000,-0.028500,
2025-11-12T16:46:02.361492+00:00,10.805000,-0.037240,
2025-11-12T16:46:02.366492+00:00,10.810000,-0.036860,
2025-11-12T16:46:02.371492+00:00,10.815000,-0.033060,
2025-11-12T16:46:02.376492+00:00,10.820000,-0.032300,
2025-11-12T16:46:02.381492+00:00,10.825000,-0.035720,
2025-11-12T16:46:02.386492+00:00,10.830000,-0.038760,
2025-11-12T16:46:02.391492+00:00,10.835000,-0.042940,
2025-11-12T16:46:02.396492+00:00,10.840000,-0.048640,
2025-11-12T16:46:02.401492+00:00,10.845000,-0.055100,
2025-11-12T16:46:02.406492+00:00,10.850000,-0.060420,
2025-11-12T16:46:02.411492+00:00,10.855000,-0.060800,
2025-11-12T16:46:02.416492+00:00,10.860000,-0.058140,
2025-11-12T16:46:02.421492+00:00,10.865000,-0.053200,
2025-11-12T16:46:02.426491+00:00,10.870000,-0.049780,
2025-11-12T16:46:02.431492+00:00,10.875000,-0.047880,
2025-11-12T16:46:02.436492+00:00,10.880000,-0.044080,
2025-11-12T16:46:02.441492+00:00,10.885000,-0.039900,
2025-11-12T16:46:02.446492+00:00,10.890000,-0.036480,
2025-11-12T16:46:02.451492+00:00,10.895000,-0.035720,
2025-11-12T16:46:02.456492+00:00,10.900000,-0.036860,
2025-11-12T16:46:02.461492+00:00,10.905000,-0.036860,
2025-11-12T16:46:02.466492+00:00,10.910000,-0.036100,
2025-11-12T16:46:02.471492+00:00,10.915000,-0.032680,
2025-11-12T16:46:02.476492+00:00,10.920000,-0.023940,
2025-11-12T16:46:02.481492+00:00,10.925000,-0.003420,
2025-11-12T16:46:02.486492+00:00,10.930000,0.028500,
2025-11-12T16:46:02.491492+00:00,10.935000,0.059280,
2025-11-12T16:46:02.496492+00:00,10.940000,0.089680,
2025-11-12T16:46:02.501492+00:00,10.945000,0.174040,
2025-11-12T16:46:02.506492+00:00,10.950000,0.331360,
2025-11-12T16:46:02.511492+00:00,10.955000,0.439280,
2025-11-12T16:46:02.516492+00:00,10.960000,0.315780,
2025-11-12T16:46:02.521492+00:00,10.965000,-0.027740,
2025-11-12T16:46:02.526492+00:00,10.970000,-0.359100,
2025-11-12T16:46:02.531492+00:00,10.975000,-0.461700,
2025-11-12T16:46:02.536492+00:00,10.980000,-0.355300,
2025-11-12T16:46:02.541492+00:00,10.985000,-0.219260,
2025-11-12T16:46:02.546492+00:00,10.990000,-0.159600,
2025-11-12T16:46:02.551491+00:00,10.995000,-0.143640,
2025-11-12T16:46:02.556492+00:00,11.000000,-0.122740,
2025-11-12T16:46:02.561492+00:00,11.005000,-0.098800,
2025-11-12T16:46:02.566492+00:00,11.010000,-0.081320,
2025-11-12T16:46:02.571492+00:00,11.015000,-0.066880,
2025-11-12T16:46:02.576492+00:00,11.020000,-0.054720,
2025-11-12T16:46:02.581492+00:00,11.025000,-0.045600,
2025-11-12T16:46:02.586492+00:00,11.030000,-0.041040,
2025-11-12T16:46:02.591492+00:00,11.035000,-0.039140,
2025-11-12T16:46:02.596492+00:00,11.040000,-0.035720,
2025-11-12T16:46:02.601492+00:00,11.045000,-0.033440,
2025-11-12T16:46:02.606492+00:00,11.050000,-0.031540,
2025-11-12T16:46:02.611492+00:00,11.055000,-0.030780,
2025-11-12T16:46:02.616492+00:00,11.060000,-0.028500,
2025-11-12T16:46:02.621492+00:00,11.065000,-0.028880,
2025-11-12T16:46:02.626492+00:00,11.070000,-0.028500,
2025-11-12T16:46:02.631492+00:00,11.075000,-0.030780,
2025-11-12T16:46:02.636492+00:00,11.080000,-0.031160,
2025-11-12T16:46:02.641492+00:00,11.085000,-0.028880,
2025-11-12T16:46:02.646492+00:00,11.090000,-0.023560,
2025-11-12T16:46:02.651492+00:00,11.095000,-0.020900,
2025-11-12T16:46:02.656492+00:00,11.100000,-0.018620,
2025-11-12T16:46:02.661492+00:00,11.105000,-0.019000,
2025-11-12T16:46:02.666492+00:00,11.110000,-0.019760,
2025-11-12T16:46:02.671492+00:00,11.115000,-0.022420,
2025-11-12T16:46:02.676491+00:00,11.120000,-0.022800,
2025-11-12T16:46:02.681492+00:00,11.125000,-0.021280,
2025-11-12T16:46:02.686492+00:00,11.130000,-0.015200,
2025-11-12T16:46:02.691492+00:00,11.135000,-0.007980,
2025-11-12T16:46:02.696492+00:00,11.140000,-0.003800,
2025-11-12T16:46:02.701492+00:00,11.145000,-0.002280,
2025-11-12T16:46:02.706492+00:00,11.150000,0.000760,
2025-11-12T16:46:02.711492+00:00,11.155000,0.004180,
2025-11-12T16:46:02.716492+00:00,11.160000,0.007600,
2025-11-12T16:46:02.721492+00:00,11.165000,0.009880,
2025-11-12T16:46:02.726492+00:00,11.170000,0.014440,
2025-11-12T16:46:02.731492+00:00,11.175000,0.019000,
2025-11-12T16:46:02.736492+00:00,11.180000,0.018240,
2025-11-12T16:46:02.741492+00:00,11.185000,0.011400,
2025-11-12T16:46:02.746492+00:00,11.190000,0.004560,
2025-11-12T16:46:02.751492+00:00,11.195000,0.001520,
2025-11-12T16:46:02.756492+00:00,11.200000,-0.001140,
2025-11-12T16:46:02.761492+00:00,11.205000,-0.008360,
2025-11-12T16:46:02.766492+00:00,11.210000,-0.018240,
2025-11-12T16:46:02.771492+00:00,11.215000,-0.027360,
2025-11-12T16:46:02.776492+00:00,11.220000,-0.038000,
2025-11-12T16:46:02.781492+00:00,11.225000,-0.055480,
2025-11-12T16:46:02.786492+00:00,11.230000,-0.075240,
2025-11-12T16:46:02.791492+00:00,11.235000,-0.094620,
2025-11-12T16:46:02.796492+00:00,11.240000,-0.108680,
2025-11-12T16:46:02.801491+00:00,11.245000,-0.118180,
2025-11-12T16:46:02.806492+00:00,11.250000,-0.128060,
2025-11-12T16:46:02.811492+00:00,11.255000,-0.132240,
2025-11-12T16:46:02.816492+00:00,11.260000,-0.131480,
2025-11-12T16:46:02.821492+00:00,11.265000,-0.124260,
2025-11-12T16:46:02.826492+00:00,11.270000,-0.112860,
2025-11-12T16:46:02.831492+00:00,11.275000,-0.102220,
2025-11-12T16:46:02.836492+00:00,11.280000,-0.093100,
2025-11-12T16:46:02.841492+00:00,11.285000,-0.085120,
2025-11-12T16:46:02.846492+00:00,11.290000,-0.077520,
2025-11-12T16:46:02.851492+00:00,11.295000,-0.072200,
2025-11-12T16:46:02.856492+00:00,11.300000,-0.067260,
2025-11-12T16:46:02.861492+00:00,11.305000,-0.063080,
2025-11-12T16:46:02.866492+00:00,11.310000,-0.055860,
