timestamp_utc,t_rel_sec,ecg_mV,event
2025-10-15T08:26:04.238318+00:00,0.000000,0.000000,
2025-10-15T08:26:04.243318+00:00,0.005000,0.000000,
2025-10-15T08:26:04.248318+00:00,0.010000,-0.001140,
2025-10-15T08:26:04.253318+00:00,0.015000,-0.001900,
2025-10-15T08:26:04.258318+00:00,0.020000,0.017860,
2025-10-15T08:26:04.263318+00:00,0.025000,-0.028120,
2025-10-15T08:26:04.268318+00:00,0.030000,-0.096900,
2025-10-15T08:26:04.273318+00:00,0.035000,0.285760,
2025-10-15T08:26:04.278318+00:00,0.040000,0.224960,
2025-10-15T08:26:04.283318+00:00,0.045000,-1.284020,
2025-10-15T08:26:04.288318+00:00,0.050000,-1.075020,
2025-10-15T08:26:04.293318+00:00,0.055000,2.601100,
2025-10-15T08:26:04.298318+00:00,0.060000,2.814280,
2025-10-15T08:26:04.303318+00:00,0.065000,-8.702760,
2025-10-15T08:26:04.308318+00:00,0.070000,-29.530940,
2025-10-15T08:26:04.313318+00:00,0.075000,-47.286440,
2025-10-15T08:26:04.318318+00:00,0.080000,-48.146760,
2025-10-15T08:26:04.323318+00:00,0.085000,-47.396260,
2025-10-15T08:26:04.328318+00:00,0.090000,-41.510820,
2025-10-15T08:26:04.333318+00:00,0.095000,-37.688020,
2025-10-15T08:26:04.338318+00:00,0.100000,-35.717340,
2025-10-15T08:26:04.343318+00:00,0.105000,-34.662460,
2025-10-15T08:26:04.348318+00:00,0.110000,-32.766260,
2025-10-15T08:26:04.353318+00:00,0.115000,-27.459560,
2025-10-15T08:26:04.358318+00:00,0.120000,-19.775960,
2025-10-15T08:26:04.363318+00:00,0.125000,-13.021460,
2025-10-15T08:26:04.368318+00:00,0.130000,-8.489200,
2025-10-15T08:26:04.373318+00:00,0.135000,-5.382320,
2025-10-15T08:26:04.378318+00:00,0.140000,-2.830620,
2025-10-15T08:26:04.383318+00:00,0.145000,-0.738340,
2025-10-15T08:26:04.388318+00:00,0.150000,0.805220,
2025-10-15T08:26:04.393318+00:00,0.155000,1.948640,
2025-10-15T08:26:04.398318+00:00,0.160000,2.830240,
2025-10-15T08:26:04.403318+00:00,0.165000,3.495240,
2025-10-15T08:26:04.408318+00:00,0.170000,3.995700,
2025-10-15T08:26:04.413318+00:00,0.175000,4.374560,
2025-10-15T08:26:04.418318+00:00,0.180000,4.658800,
2025-10-15T08:26:04.423318+00:00,0.185000,4.864380,
2025-10-15T08:26:04.428318+00:00,0.190000,5.005360,
2025-10-15T08:26:04.433318+00:00,0.195000,5.104540,
2025-10-15T08:26:04.438318+00:00,0.200000,5.172940,
2025-10-15T08:26:04.443318+00:00,0.205000,5.214740,
2025-10-15T08:26:04.448318+00:00,0.210000,5.228040,
2025-10-15T08:26:04.453318+00:00,0.215000,5.215500,
2025-10-15T08:26:04.458318+00:00,0.220000,5.190420,
2025-10-15T08:26:04.463318+00:00,0.225000,5.158880,
2025-10-15T08:26:04.468318+00:00,0.230000,5.121640,
2025-10-15T08:26:04.473318+00:00,0.235000,5.080220,
2025-10-15T08:26:04.478318+00:00,0.240000,5.032720,
2025-10-15T08:26:04.483318+00:00,0.245000,4.979520,
2025-10-15T08:26:04.488318+00:00,0.250000,4.924420,
2025-10-15T08:26:04.493318+00:00,0.255000,4.874640,
2025-10-15T08:26:04.498318+00:00,0.260000,4.825240,
2025-10-15T08:26:04.503318+00:00,0.265000,4.773180,
2025-10-15T08:26:04.508318+00:00,0.270000,4.715420,
2025-10-15T08:26:04.513318+00:00,0.275000,4.650820,
2025-10-15T08:26:04.518318+00:00,0.280000,4.590780,
2025-10-15T08:26:04.523318+00:00,0.285000,4.539100,
2025-10-15T08:26:04.528318+00:00,0.290000,4.485140,
2025-10-15T08:26:04.533318+00:00,0.295000,4.420920,
2025-10-15T08:26:04.538318+00:00,0.300000,4.365820,
2025-10-15T08:26:04.543318+00:00,0.305000,4.347960,
2025-10-15T08:26:04.548318+00:00,0.310000,4.366580,
2025-10-15T08:26:04.553318+00:00,0.315000,4.377220,
2025-10-15T08:26:04.558318+00:00,0.320000,4.352900,
2025-10-15T08:26:04.563318+00:00,0.325000,4.320980,
2025-10-15T08:26:04.568318+00:00,0.330000,4.311860,
2025-10-15T08:26:04.573318+00:00,0.335000,4.275380,
2025-10-15T08:26:04.578318+00:00,0.340000,4.116920,
2025-10-15T08:26:04.583318+00:00,0.345000,3.818620,
2025-10-15T08:26:04.588318+00:00,0.350000,3.496000,
2025-10-15T08:26:04.593318+00:00,0.355000,3.309420,
2025-10-15T08:26:04.598318+00:00,0.360000,3.299920,
2025-10-15T08:26:04.603318+00:00,0.365000,3.378580,
2025-10-15T08:26:04.608318+00:00,0.370000,3.440900,
2025-10-15T08:26:04.613318+00:00,0.375000,3.451540,
2025-10-15T08:26:04.618318+00:00,0.380000,3.440520,
2025-10-15T08:26:04.623318+00:00,0.385000,3.427220,
2025-10-15T08:26:04.628318+00:00,0.390000,3.405180,
2025-10-15T08:26:04.633318+00:00,0.395000,3.364140,
2025-10-15T08:26:04.638318+00:00,0.400000,3.313220,
2025-10-15T08:26:04.643318+00:00,0.405000,3.262300,
2025-10-15T08:26:04.648318+00:00,0.410000,3.211380,
2025-10-15T08:26:04.653318+00:00,0.415000,3.163120,
2025-10-15T08:26:04.658318+00:00,0.420000,3.119800,
2025-10-15T08:26:04.663318+00:00,0.425000,3.079900,
2025-10-15T08:26:04.668318+00:00,0.430000,3.038860,
2025-10-15T08:26:04.673318+00:00,0.435000,2.994780,
2025-10-15T08:26:04.678318+00:00,0.440000,2.949180,
2025-10-15T08:26:04.683318+00:00,0.445000,2.903200,
2025-10-15T08:26:04.688318+00:00,0.450000,2.859880,
2025-10-15T08:26:04.693318+00:00,0.455000,2.814660,
2025-10-15T08:26:04.698318+00:00,0.460000,2.770200,
2025-10-15T08:26:04.703318+00:00,0.465000,2.727640,
2025-10-15T08:26:04.708318+00:00,0.470000,2.690020,
2025-10-15T08:26:04.713318+00:00,0.475000,2.655820,
2025-10-15T08:26:04.718318+00:00,0.480000,2.623140,
2025-10-15T08:26:04.723318+00:00,0.485000,2.587040,
2025-10-15T08:26:04.728318+00:00,0.490000,2.547900,
2025-10-15T08:26:04.733318+00:00,0.495000,2.509900,
2025-10-15T08:26:04.738318+00:00,0.500000,2.473420,
2025-10-15T08:26:04.743318+00:00,0.505000,2.440740,
2025-10-15T08:26:04.748318+00:00,0.510000,2.407680,
2025-10-15T08:26:04.753318+00:00,0.515000,2.373860,
2025-10-15T08:26:04.758318+00:00,0.520000,2.339280,
2025-10-15T08:26:04.763318+00:00,0.525000,2.306600,
2025-10-15T08:26:04.768318+00:00,0.530000,2.276580,
2025-10-15T08:26:04.773318+00:00,0.535000,2.245800,
2025-10-15T08:26:04.778318+00:00,0.540000,2.210840,
2025-10-15T08:26:04.783318+00:00,0.545000,2.172460,
2025-10-15T08:26:04.788318+00:00,0.550000,2.132560,
2025-10-15T08:26:04.793318+00:00,0.555000,2.091520,
2025-10-15T08:26:04.798318+00:00,0.560000,2.053140,
2025-10-15T08:26:04.803318+00:00,0.565000,2.020460,
2025-10-15T08:26:04.808318+00:00,0.570000,1.988920,
2025-10-15T08:26:04.813318+00:00,0.575000,1.954720,
2025-10-15T08:26:04.818318+00:00,0.580000,1.915960,
2025-10-15T08:26:04.823318+00:00,0.585000,1.875300,
2025-10-15T08:26:04.828318+00:00,0.590000,1.832740,
2025-10-15T08:26:04.833318+00:00,0.595000,1.787900,
2025-10-15T08:26:04.838318+00:00,0.600000,1.741540,
2025-10-15T08:26:04.843318+00:00,0.605000,1.698980,
2025-10-15T08:26:04.848318+00:00,0.610000,1.662120,
2025-10-15T08:26:04.853318+00:00,0.615000,1.630200,
2025-10-15T08:26:04.858318+00:00,0.620000,1.597900,
2025-10-15T08:26:04.863318+00:00,0.625000,1.564840,
2025-10-15T08:26:04.868318+00:00,0.630000,1.535580,
2025-10-15T08:26:04.873318+00:00,0.635000,1.513920,
2025-10-15T08:26:04.878318+00:00,0.640000,1.499480,
2025-10-15T08:26:04.883318+00:00,0.645000,1.486180,
2025-10-15T08:26:04.888318+00:00,0.650000,1.472880,
2025-10-15T08:26:04.893318+00:00,0.655000,1.456540,
2025-10-15T08:26:04.898318+00:00,0.660000,1.442100,
2025-10-15T08:26:04.903318+00:00,0.665000,1.428040,
2025-10-15T08:26:04.908318+00:00,0.670000,1.416260,
2025-10-15T08:26:04.913318+00:00,0.675000,1.402200,
2025-10-15T08:26:04.918318+00:00,0.680000,1.388140,
2025-10-15T08:26:04.923318+00:00,0.685000,1.371800,
2025-10-15T08:26:04.928318+00:00,0.690000,1.353940,
2025-10-15T08:26:04.933318+00:00,0.695000,1.335320,
2025-10-15T08:26:04.938318+00:00,0.700000,1.320500,
2025-10-15T08:26:04.943318+00:00,0.705000,1.307960,
2025-10-15T08:26:04.948318+00:00,0.710000,1.292000,
2025-10-15T08:26:04.953318+00:00,0.715000,1.271860,
2025-10-15T08:26:04.958318+00:00,0.720000,1.249820,
2025-10-15T08:26:04.963318+00:00,0.725000,1.231200,
2025-10-15T08:26:04.968318+00:00,0.730000,1.213340,
2025-10-15T08:26:04.973318+00:00,0.735000,1.194720,
2025-10-15T08:26:04.978318+00:00,0.740000,1.176100,
2025-10-15T08:26:04.983318+00:00,0.745000,1.159380,
2025-10-15T08:26:04.988318+00:00,0.750000,1.141900,
2025-10-15T08:26:04.993318+00:00,0.755000,1.120240,
2025-10-15T08:26:04.998318+00:00,0.760000,1.099720,
2025-10-15T08:26:05.003318+00:00,0.765000,1.084900,
2025-10-15T08:26:05.008318+00:00,0.770000,1.073500,
2025-10-15T08:26:05.013318+00:00,0.775000,1.058680,
2025-10-15T08:26:05.018318+00:00,0.780000,1.040440,
2025-10-15T08:26:05.023318+00:00,0.785000,1.021440,
2025-10-15T08:26:05.028318+00:00,0.790000,1.002440,
2025-10-15T08:26:05.033318+00:00,0.795000,0.983060,
2025-10-15T08:26:05.038318+00:00,0.800000,0.964820,
2025-10-15T08:26:05.043318+00:00,0.805000,0.947340,
2025-10-15T08:26:05.048318+00:00,0.810000,0.933660,
2025-10-15T08:26:05.053318+00:00,0.815000,0.923780,
2025-10-15T08:26:05.058318+00:00,0.820000,0.913520,
2025-10-15T08:26:05.063318+00:00,0.825000,0.899080,
2025-10-15T08:26:05.068318+00:00,0.830000,0.881220,
2025-10-15T08:26:05.073318+00:00,0.835000,0.863360,
2025-10-15T08:26:05.078318+00:00,0.840000,0.847020,
2025-10-15T08:26:05.083318+00:00,0.845000,0.835620,
2025-10-15T08:26:05.088318+00:00,0.850000,0.824980,
2025-10-15T08:26:05.093318+00:00,0.855000,0.814340,
2025-10-15T08:26:05.098318+00:00,0.860000,0.801800,
2025-10-15T08:26:05.103318+00:00,0.865000,0.790020,
2025-10-15T08:26:05.108318+00:00,0.870000,0.779000,
2025-10-15T08:26:05.113318+00:00,0.875000,0.767600,
2025-10-15T08:26:05.118318+00:00,0.880000,0.754300,
2025-10-15T08:26:05.123318+00:00,0.885000,0.743280,
2025-10-15T08:26:05.128318+00:00,0.890000,0.734160,
2025-10-15T08:26:05.133318+00:00,0.895000,0.725040,
2025-10-15T08:26:05.138318+00:00,0.900000,0.713640,
2025-10-15T08:26:05.143318+00:00,0.905000,0.699200,
2025-10-15T08:26:05.148318+00:00,0.910000,0.685900,
2025-10-15T08:26:05.153318+00:00,0.915000,0.672980,
2025-10-15T08:26:05.158318+00:00,0.920000,0.663860,
2025-10-15T08:26:05.163318+00:00,0.925000,0.654360,
2025-10-15T08:26:05.168318+00:00,0.930000,0.646000,
2025-10-15T08:26:05.173318+00:00,0.935000,0.638020,
2025-10-15T08:26:05.178318+00:00,0.940000,0.629280,
2025-10-15T08:26:05.183318+00:00,0.945000,0.618260,
2025-10-15T08:26:05.188318+00:00,0.950000,0.606100,
2025-10-15T08:26:05.193318+00:00,0.955000,0.593940,
2025-10-15T08:26:05.198318+00:00,0.960000,0.585200,
2025-10-15T08:26:05.203318+00:00,0.965000,0.578360,
2025-10-15T08:26:05.208318+00:00,0.970000,0.572280,
2025-10-15T08:26:05.213318+00:00,0.975000,0.563160,
2025-10-15T08:26:05.218318+00:00,0.980000,0.549860,
2025-10-15T08:26:05.223318+00:00,0.985000,0.539220,
2025-10-15T08:26:05.228318+00:00,0.990000,0.531620,
2025-10-15T08:26:05.233318+00:00,0.995000,0.525920,
2025-10-15T08:26:05.238318+00:00,1.000000,0.519460,
2025-10-15T08:26:05.243318+00:00,1.005000,0.512240,
2025-10-15T08:26:05.248318+00:00,1.010000,0.506920,
2025-10-15T08:26:05.253318+00:00,1.015000,0.499320,
2025-10-15T08:26:05.258318+00:00,1.020000,0.489060,
2025-10-15T08:26:05.263318+00:00,1.025000,0.477280,
2025-10-15T08:26:05.268318+00:00,1.030000,0.468920,
2025-10-15T08:26:05.273318+00:00,1.035000,0.462460,
2025-10-15T08:26:05.278318+00:00,1.040000,0.457520,
2025-10-15T08:26:05.283318+00:00,1.045000,0.452580,
2025-10-15T08:26:05.288318+00:00,1.050000,0.444220,
2025-10-15T08:26:05.293318+00:00,1.055000,0.435480,
2025-10-15T08:26:05.298318+00:00,1.060000,0.425220,
2025-10-15T08:26:05.303318+00:00,1.065000,0.417620,
2025-10-15T08:26:05.308318+00:00,1.070000,0.415340,
2025-10-15T08:26:05.313318+00:00,1.075000,0.418760,
2025-10-15T08:26:05.318318+00:00,1.080000,0.421800,
2025-10-15T08:26:05.323318+00:00,1.085000,0.423700,
2025-10-15T08:26:05.328318+00:00,1.090000,0.418380,
2025-10-15T08:26:05.333318+00:00,1.095000,0.410400,
2025-10-15T08:26:05.338318+00:00,1.100000,0.394820,
2025-10-15T08:26:05.343318+00:00,1.105000,0.376200,
2025-10-15T08:26:05.348318+00:00,1.110000,0.357960,
2025-10-15T08:26:05.353318+00:00,1.115000,0.345800,
2025-10-15T08:26:05.358318+00:00,1.120000,0.337440,
2025-10-15T08:26:05.363318+00:00,1.125000,0.331740,
2025-10-15T08:26:05.368318+00:00,1.130000,0.326420,
2025-10-15T08:26:05.373318+00:00,1.135000,0.319960,
2025-10-15T08:26:05.378318+00:00,1.140000,0.314260,
2025-10-15T08:26:05.383318+00:00,1.145000,0.311980,
2025-10-15T08:26:05.388318+00:00,1.150000,0.308940,
2025-10-15T08:26:05.393318+00:00,1.155000,0.305140,
2025-10-15T08:26:05.398318+00:00,1.160000,0.298300,
2025-10-15T08:26:05.403318+00:00,1.165000,0.292600,
2025-10-15T08:26:05.408318+00:00,1.170000,0.292220,
2025-10-15T08:26:05.413318+00:00,1.175000,0.291460,
2025-10-15T08:26:05.418318+00:00,1.180000,0.281200,
2025-10-15T08:26:05.423318+00:00,1.185000,0.264860,
2025-10-15T08:26:05.428318+00:00,1.190000,0.275500,
2025-10-15T08:26:05.433318+00:00,1.195000,0.331360,
2025-10-15T08:26:05.438318+00:00,1.200000,0.402040,
2025-10-15T08:26:05.443318+00:00,1.205000,0.445360,
2025-10-15T08:26:05.448318+00:00,1.210000,0.456000,
2025-10-15T08:26:05.453318+00:00,1.215000,0.483360,
2025-10-15T08:26:05.458318+00:00,1.220000,0.539980,
2025-10-15T08:26:05.463318+00:00,1.225000,0.547960,
2025-10-15T08:26:05.468318+00:00,1.230000,0.413060,
2025-10-15T08:26:05.473318+00:00,1.235000,0.158840,
2025-10-15T08:26:05.478318+00:00,1.240000,-0.066880,
2025-10-15T08:26:05.483318+00:00,1.245000,-0.140980,
2025-10-15T08:26:05.488318+00:00,1.250000,-0.078280,
2025-10-15T08:26:05.493318+00:00,1.255000,0.017480,
2025-10-15T08:26:05.498318+00:00,1.260000,0.076380,
2025-10-15T08:26:05.503318+00:00,1.265000,0.109820,
2025-10-15T08:26:05.508318+00:00,1.270000,0.148960,
2025-10-15T08:26:05.513318+00:00,1.275000,0.190380,
2025-10-15T08:26:05.518318+00:00,1.280000,0.212800,
2025-10-15T08:26:05.523318+00:00,1.285000,0.215460,
2025-10-15T08:26:05.528318+00:00,1.290000,0.211660,
2025-10-15T08:26:05.533318+00:00,1.295000,0.208620,
2025-10-15T08:26:05.538318+00:00,1.300000,0.207480,
2025-10-15T08:26:05.543318+00:00,1.305000,0.206720,
2025-10-15T08:26:05.548318+00:00,1.310000,0.204820,
2025-10-15T08:26:05.553318+00:00,1.315000,0.203300,
2025-10-15T08:26:05.558318+00:00,1.320000,0.198740,
2025-10-15T08:26:05.563318+00:00,1.325000,0.197600,
2025-10-15T08:26:05.568318+00:00,1.330000,0.195320,
2025-10-15T08:26:05.573318+00:00,1.335000,0.195320,
2025-10-15T08:26:05.578318+00:00,1.340000,0.192280,
2025-10-15T08:26:05.583318+00:00,1.345000,0.186580,
2025-10-15T08:26:05.588318+00:00,1.350000,0.179360,
2025-10-15T08:26:05.593318+00:00,1.355000,0.174420,
2025-10-15T08:26:05.598318+00:00,1.360000,0.175180,
2025-10-15T08:26:05.603318+00:00,1.365000,0.179360,
2025-10-15T08:26:05.608318+00:00,1.370000,0.179360,
2025-10-15T08:26:05.613318+00:00,1.375000,0.173660,
2025-10-15T08:26:05.618318+00:00,1.380000,0.169480,
2025-10-15T08:26:05.623318+00:00,1.385000,0.169480,
2025-10-15T08:26:05.628318+00:00,1.390000,0.172140,
2025-10-15T08:26:05.633318+00:00,1.395000,0.173660,
2025-10-15T08:26:05.638318+00:00,1.400000,0.171760,
2025-10-15T08:26:05.643318+00:00,1.405000,0.168340,
2025-10-15T08:26:05.648318+00:00,1.410000,0.169100,
2025-10-15T08:26:05.653318+00:00,1.415000,0.167960,
2025-10-15T08:26:05.658318+00:00,1.420000,0.165680,
2025-10-15T08:26:05.663318+00:00,1.425000,0.162640,
2025-10-15T08:26:05.668318+00:00,1.430000,0.161500,
2025-10-15T08:26:05.673318+00:00,1.435000,0.158840,
2025-10-15T08:26:05.678318+00:00,1.440000,0.152760,
2025-10-15T08:26:05.683318+00:00,1.445000,0.142120,
2025-10-15T08:26:05.688318+00:00,1.450000,0.131480,
2025-10-15T08:26:05.693318+00:00,1.455000,0.123880,
2025-10-15T08:26:05.698318+00:00,1.460000,0.115900,
2025-10-15T08:26:05.703318+00:00,1.465000,0.104880,
2025-10-15T08:26:05.708318+00:00,1.470000,0.091960,
2025-10-15T08:26:05.713318+00:00,1.475000,0.078280,
2025-10-15T08:26:05.718318+00:00,1.480000,0.066120,
2025-10-15T08:26:05.723318+00:00,1.485000,0.052060,
2025-10-15T08:26:05.728318+00:00,1.490000,0.035720,
2025-10-15T08:26:05.733318+00:00,1.495000,0.017860,
2025-10-15T08:26:05.738318+00:00,1.500000,0.004940,
2025-10-15T08:26:05.743318+00:00,1.505000,-0.001520,
2025-10-15T08:26:05.748318+00:00,1.510000,-0.002660,
2025-10-15T08:26:05.753318+00:00,1.515000,-0.004560,
2025-10-15T08:26:05.758318+00:00,1.520000,-0.005700,
2025-10-15T08:26:05.763318+00:00,1.525000,-0.008360,
2025-10-15T08:26:05.768318+00:00,1.530000,-0.004180,
2025-10-15T08:26:05.773318+00:00,1.535000,0.004940,
2025-10-15T08:26:05.778318+00:00,1.540000,0.014440,
2025-10-15T08:26:05.783318+00:00,1.545000,0.020520,
2025-10-15T08:26:05.788318+00:00,1.550000,0.025080,
2025-10-15T08:26:05.793318+00:00,1.555000,0.028500,
2025-10-15T08:26:05.798318+00:00,1.560000,0.035720,
2025-10-15T08:26:05.803318+00:00,1.565000,0.041800,
2025-10-15T08:26:05.808318+00:00,1.570000,0.049400,
2025-10-15T08:26:05.813318+00:00,1.575000,0.053200,
2025-10-15T08:26:05.818318+00:00,1.580000,0.056240,
2025-10-15T08:26:05.823318+00:00,1.585000,0.057760,
2025-10-15T08:26:05.828318+00:00,1.590000,0.061560,
2025-10-15T08:26:05.833318+00:00,1.595000,0.066500,
2025-10-15T08:26:05.838318+00:00,1.600000,0.068400,
2025-10-15T08:26:05.843318+00:00,1.605000,0.066500,
2025-10-15T08:26:05.848318+00:00,1.610000,0.062320,
2025-10-15T08:26:05.853318+00:00,1.615000,0.059280,
2025-10-15T08:26:05.858318+00:00,1.620000,0.058900,
2025-10-15T08:26:05.863318+00:00,1.625000,0.060040,
2025-10-15T08:26:05.868318+00:00,1.630000,0.060420,
2025-10-15T08:26:05.873318+00:00,1.635000,0.058520,
2025-10-15T08:26:05.878318+00:00,1.640000,0.054720,
2025-10-15T08:26:05.883318+00:00,1.645000,0.052820,
2025-10-15T08:26:05.888318+00:00,1.650000,0.054720,
2025-10-15T08:26:05.893318+00:00,1.655000,0.056620,
2025-10-15T08:26:05.898318+00:00,1.660000,0.054340,
2025-10-15T08:26:05.903318+00:00,1.665000,0.047880,
2025-10-15T08:26:05.908318+00:00,1.670000,0.041420,
2025-10-15T08:26:05.913318+00:00,1.675000,0.038000,
2025-10-15T08:26:05.918318+00:00,1.680000,0.035720,
2025-10-15T08:26:05.923318+00:00,1.685000,0.038000,
2025-10-15T08:26:05.928318+00:00,1.690000,0.040280,
2025-10-15T08:26:05.933318+00:00,1.695000,0.040660,
2025-10-15T08:26:05.938318+00:00,1.700000,0.039140,
2025-10-15T08:26:05.943318+00:00,1.705000,0.035720,
2025-10-15T08:26:05.948318+00:00,1.710000,0.031160,
2025-10-15T08:26:05.953318+00:00,1.715000,0.029640,
2025-10-15T08:26:05.958318+00:00,1.720000,0.026220,
2025-10-15T08:26:05.963318+00:00,1.725000,0.023560,
2025-10-15T08:26:05.968318+00:00,1.730000,0.023180,
2025-10-15T08:26:05.973318+00:00,1.735000,0.026600,
2025-10-15T08:26:05.978318+00:00,1.740000,0.031920,
2025-10-15T08:26:05.983318+00:00,1.745000,0.034200,
2025-10-15T08:26:05.988318+00:00,1.750000,0.031160,
2025-10-15T08:26:05.993318+00:00,1.755000,0.025080,
2025-10-15T08:26:05.998318+00:00,1.760000,0.021660,
2025-10-15T08:26:06.003318+00:00,1.765000,0.022420,
2025-10-15T08:26:06.008318+00:00,1.770000,0.023560,
2025-10-15T08:26:06.013318+00:00,1.775000,0.023180,
2025-10-15T08:26:06.018318+00:00,1.780000,0.019760,
2025-10-15T08:26:06.023318+00:00,1.785000,0.014440,
2025-10-15T08:26:06.028318+00:00,1.790000,0.013680,
2025-10-15T08:26:06.033318+00:00,1.795000,0.016340,
2025-10-15T08:26:06.038318+00:00,1.800000,0.020520,
2025-10-15T08:26:06.043318+00:00,1.805000,0.022420,
2025-10-15T08:26:06.048318+00:00,1.810000,0.021280,
2025-10-15T08:26:06.053318+00:00,1.815000,0.021280,
2025-10-15T08:26:06.058318+00:00,1.820000,0.023560,
2025-10-15T08:26:06.063318+00:00,1.825000,0.023560,
2025-10-15T08:26:06.068318+00:00,1.830000,0.019760,
2025-10-15T08:26:06.073318+00:00,1.835000,0.014820,
2025-10-15T08:26:06.078318+00:00,1.840000,0.014060,
2025-10-15T08:26:06.083318+00:00,1.845000,0.015200,
2025-10-15T08:26:06.088318+00:00,1.850000,0.017480,
2025-10-15T08:26:06.093318+00:00,1.855000,0.017480,
2025-10-15T08:26:06.098318+00:00,1.860000,0.015580,
2025-10-15T08:26:06.103318+00:00,1.865000,0.011020,
2025-10-15T08:26:06.108318+00:00,1.870000,0.006840,
2025-10-15T08:26:06.113318+00:00,1.875000,0.006840,
2025-10-15T08:26:06.118318+00:00,1.880000,0.011400,
2025-10-15T08:26:06.123318+00:00,1.885000,0.015200,
2025-10-15T08:26:06.128318+00:00,1.890000,0.016720,
2025-10-15T08:26:06.133318+00:00,1.895000,0.014820,
2025-10-15T08:26:06.138318+00:00,1.900000,0.010640,
2025-10-15T08:26:06.143318+00:00,1.905000,0.008740,
2025-10-15T08:26:06.148318+00:00,1.910000,0.007980,
2025-10-15T08:26:06.153318+00:00,1.915000,0.006080,
2025-10-15T08:26:06.158318+00:00,1.920000,0.007980,
2025-10-15T08:26:06.163318+00:00,1.925000,0.006460,
2025-10-15T08:26:06.168318+00:00,1.930000,0.002280,
2025-10-15T08:26:06.173318+00:00,1.935000,-0.000380,
2025-10-15T08:26:06.178318+00:00,1.940000,0.003040,
2025-10-15T08:26:06.183318+00:00,1.945000,0.009120,
2025-10-15T08:26:06.188318+00:00,1.950000,0.009880,
2025-10-15T08:26:06.193318+00:00,1.955000,0.003800,
2025-10-15T08:26:06.198318+00:00,1.960000,-0.001900,
2025-10-15T08:26:06.203318+00:00,1.965000,-0.001140,
2025-10-15T08:26:06.208318+00:00,1.970000,0.003800,
2025-10-15T08:26:06.213318+00:00,1.975000,0.006080,
2025-10-15T08:26:06.218318+00:00,1.980000,0.002280,
2025-10-15T08:26:06.223318+00:00,1.985000,-0.001520,
2025-10-15T08:26:06.228318+00:00,1.990000,-0.001520,
2025-10-15T08:26:06.233318+00:00,1.995000,0.000760,
2025-10-15T08:26:06.238318+00:00,2.000000,0.001520,
2025-10-15T08:26:06.243318+00:00,2.005000,0.000760,
2025-10-15T08:26:06.248318+00:00,2.010000,0.006460,
2025-10-15T08:26:06.253318+00:00,2.015000,0.015580,
2025-10-15T08:26:06.258318+00:00,2.020000,0.021660,
2025-10-15T08:26:06.263318+00:00,2.025000,0.022800,
2025-10-15T08:26:06.268318+00:00,2.030000,0.016720,
2025-10-15T08:26:06.273318+00:00,2.035000,0.006460,
2025-10-15T08:26:06.278318+00:00,2.040000,-0.004180,
2025-10-15T08:26:06.283318+00:00,2.045000,-0.013300,
2025-10-15T08:26:06.288318+00:00,2.050000,-0.019380,
2025-10-15T08:26:06.293318+00:00,2.055000,-0.022800,
2025-10-15T08:26:06.298318+00:00,2.060000,-0.022800,
2025-10-15T08:26:06.303318+00:00,2.065000,-0.020900,
2025-10-15T08:26:06.308318+00:00,2.070000,-0.020520,
2025-10-15T08:26:06.313318+00:00,2.075000,-0.019380,
2025-10-15T08:26:06.318318+00:00,2.080000,-0.017860,
2025-10-15T08:26:06.323318+00:00,2.085000,-0.014060,
2025-10-15T08:26:06.328318+00:00,2.090000,-0.015580,
2025-10-15T08:26:06.333318+00:00,2.095000,-0.018620,
2025-10-15T08:26:06.338318+00:00,2.100000,-0.020900,
2025-10-15T08:26:06.343318+00:00,2.105000,-0.019000,
2025-10-15T08:26:06.348318+00:00,2.110000,-0.020520,
2025-10-15T08:26:06.353318+00:00,2.115000,-0.021660,
2025-10-15T08:26:06.358318+00:00,2.120000,0.001900,
2025-10-15T08:26:06.363318+00:00,2.125000,0.064220,
2025-10-15T08:26:06.368318+00:00,2.130000,0.133760,
2025-10-15T08:26:06.373318+00:00,2.135000,0.171380,
2025-10-15T08:26:06.378318+00:00,2.140000,0.188480,
2025-10-15T08:26:06.383318+00:00,2.145000,0.226100,
2025-10-15T08:26:06.388318+00:00,2.150000,0.277020,
2025-10-15T08:26:06.393318+00:00,2.155000,0.251940,
2025-10-15T08:26:06.398318+00:00,2.160000,0.080180,
2025-10-15T08:26:06.403318+00:00,2.165000,-0.177460,
2025-10-15T08:26:06.408318+00:00,2.170000,-0.369360,
2025-10-15T08:26:06.413318+00:00,2.175000,-0.399760,
2025-10-15T08:26:06.418318+00:00,2.180000,-0.309320,
2025-10-15T08:26:06.423318+00:00,2.185000,-0.200640,
2025-10-15T08:26:06.428318+00:00,2.190000,-0.132240,
2025-10-15T08:26:06.433318+00:00,2.195000,-0.093100,
2025-10-15T08:26:06.438318+00:00,2.200000,-0.057760,
2025-10-15T08:26:06.443318+00:00,2.205000,-0.023560,
2025-10-15T08:26:06.448318+00:00,2.210000,-0.003800,
2025-10-15T08:26:06.453318+00:00,2.215000,0.005320,
2025-10-15T08:26:06.458318+00:00,2.220000,0.009500,
2025-10-15T08:26:06.463318+00:00,2.225000,0.007600,
2025-10-15T08:26:06.468318+00:00,2.230000,0.001900,
2025-10-15T08:26:06.473318+00:00,2.235000,0.001900,
2025-10-15T08:26:06.478318+00:00,2.240000,0.006460,
2025-10-15T08:26:06.483318+00:00,2.245000,0.009500,
2025-10-15T08:26:06.488318+00:00,2.250000,0.004560,
2025-10-15T08:26:06.493318+00:00,2.255000,-0.003800,
2025-10-15T08:26:06.498318+00:00,2.260000,-0.009880,
2025-10-15T08:26:06.503318+00:00,2.265000,-0.009500,
2025-10-15T08:26:06.508318+00:00,2.270000,-0.005700,
2025-10-15T08:26:06.513318+00:00,2.275000,-0.002280,
2025-10-15T08:26:06.518318+00:00,2.280000,-0.000760,
2025-10-15T08:26:06.523318+00:00,2.285000,0.000380,
2025-10-15T08:26:06.528318+00:00,2.290000,0.001900,
2025-10-15T08:26:06.533318+00:00,2.295000,0.005320,
2025-10-15T08:26:06.538318+00:00,2.300000,0.006840,
2025-10-15T08:26:06.543318+00:00,2.305000,0.007600,
2025-10-15T08:26:06.548318+00:00,2.310000,0.005320,
2025-10-15T08:26:06.553318+00:00,2.315000,0.005700,
2025-10-15T08:26:06.558318+00:00,2.320000,0.007600,
2025-10-15T08:26:06.563318+00:00,2.325000,0.010640,
2025-10-15T08:26:06.568318+00:00,2.330000,0.014440,
2025-10-15T08:26:06.573318+00:00,2.335000,0.018240,
2025-10-15T08:26:06.578318+00:00,2.340000,0.020520,
2025-10-15T08:26:06.583318+00:00,2.345000,0.022420,
2025-10-15T08:26:06.588318+00:00,2.350000,0.020520,
2025-10-15T08:26:06.593318+00:00,2.355000,0.017100,
2025-10-15T08:26:06.598318+00:00,2.360000,0.012920,
2025-10-15T08:26:06.603318+00:00,2.365000,0.009500,
2025-10-15T08:26:06.608318+00:00,2.370000,0.006460,
2025-10-15T08:26:06.613318+00:00,2.375000,0.003040,
2025-10-15T08:26:06.618318+00:00,2.380000,-0.003040,
2025-10-15T08:26:06.623318+00:00,2.385000,-0.007220,
2025-10-15T08:26:06.628318+00:00,2.390000,-0.011780,
2025-10-15T08:26:06.633318+00:00,2.395000,-0.017860,
2025-10-15T08:26:06.638318+00:00,2.400000,-0.028500,
2025-10-15T08:26:06.643318+00:00,2.405000,-0.041420,
2025-10-15T08:26:06.648318+00:00,2.410000,-0.055100,
2025-10-15T08:26:06.653318+00:00,2.415000,-0.068400,
2025-10-15T08:26:06.658318+00:00,2.420000,-0.082080,
2025-10-15T08:26:06.663318+00:00,2.425000,-0.095760,
2025-10-15T08:26:06.668318+00:00,2.430000,-0.109060,
2025-10-15T08:26:06.673318+00:00,2.435000,-0.117420,
2025-10-15T08:26:06.678318+00:00,2.440000,-0.118940,
2025-10-15T08:26:06.683318+00:00,2.445000,-0.117800,
2025-10-15T08:26:06.688318+00:00,2.450000,-0.117800,
2025-10-15T08:26:06.693318+00:00,2.455000,-0.118180,
2025-10-15T08:26:06.698318+00:00,2.460000,-0.118180,
2025-10-15T08:26:06.703318+00:00,2.465000,-0.112480,
2025-10-15T08:26:06.708318+00:00,2.470000,-0.103740,
2025-10-15T08:26:06.713318+00:00,2.475000,-0.091960,
2025-10-15T08:26:06.718318+00:00,2.480000,-0.079800,
2025-10-15T08:26:06.723318+00:00,2.485000,-0.068400,
2025-10-15T08:26:06.728318+00:00,2.490000,-0.060800,
2025-10-15T08:26:06.733318+00:00,2.495000,-0.056620,
2025-10-15T08:26:06.738318+00:00,2.500000,-0.052060,
2025-10-15T08:26:06.743318+00:00,2.505000,-0.045220,
2025-10-15T08:26:06.748318+00:00,2.510000,-0.039140,
2025-10-15T08:26:06.753318+00:00,2.515000,-0.034960,
2025-10-15T08:26:06.758318+00:00,2.520000,-0.034200,
2025-10-15T08:26:06.763318+00:00,2.525000,-0.033060,
2025-10-15T08:26:06.768318+00:00,2.530000,-0.030780,
2025-10-15T08:26:06.773318+00:00,2.535000,-0.027360,
2025-10-15T08:26:06.778318+00:00,2.540000,-0.022800,
2025-10-15T08:26:06.783318+00:00,2.545000,-0.020140,
2025-10-15T08:26:06.788318+00:00,2.550000,-0.020900,
2025-10-15T08:26:06.793318+00:00,2.555000,-0.022040,
2025-10-15T08:26:06.798318+00:00,2.560000,-0.022040,
2025-10-15T08:26:06.803318+00:00,2.565000,-0.020520,
2025-10-15T08:26:06.808318+00:00,2.570000,-0.023560,
2025-10-15T08:26:06.813318+00:00,2.575000,-0.026980,
2025-10-15T08:26:06.818318+00:00,2.580000,-0.028500,
2025-10-15T08:26:06.823318+00:00,2.585000,-0.030400,
2025-10-15T08:26:06.828318+00:00,2.590000,-0.030780,
2025-10-15T08:26:06.833318+00:00,2.595000,-0.031160,
2025-10-15T08:26:06.838318+00:00,2.600000,-0.030400,
2025-10-15T08:26:06.843318+00:00,2.605000,-0.028500,
2025-10-15T08:26:06.848318+00:00,2.610000,-0.027360,
2025-10-15T08:26:06.853318+00:00,2.615000,-0.028120,
2025-10-15T08:26:06.858318+00:00,2.620000,-0.030780,
2025-10-15T08:26:06.863318+00:00,2.625000,-0.031540,
2025-10-15T08:26:06.868318+00:00,2.630000,-0.032680,
2025-10-15T08:26:06.873318+00:00,2.635000,-0.033820,
2025-10-15T08:26:06.878318+00:00,2.640000,-0.035340,
2025-10-15T08:26:06.883318+00:00,2.645000,-0.038380,
2025-10-15T08:26:06.888318+00:00,2.650000,-0.035720,
2025-10-15T08:26:06.893318+00:00,2.655000,-0.031160,
2025-10-15T08:26:06.898318+00:00,2.660000,-0.025840,
2025-10-15T08:26:06.903318+00:00,2.665000,-0.026600,
2025-10-15T08:26:06.908318+00:00,2.670000,-0.028880,
2025-10-15T08:26:06.913318+00:00,2.675000,-0.030400,
2025-10-15T08:26:06.918318+00:00,2.680000,-0.028500,
2025-10-15T08:26:06.923318+00:00,2.685000,-0.026220,
2025-10-15T08:26:06.928318+00:00,2.690000,-0.028500,
2025-10-15T08:26:06.933318+00:00,2.695000,-0.032680,
2025-10-15T08:26:06.938318+00:00,2.700000,-0.034200,
2025-10-15T08:26:06.943318+00:00,2.705000,-0.033440,
2025-10-15T08:26:06.948318+00:00,2.710000,-0.030400,
2025-10-15T08:26:06.953318+00:00,2.715000,-0.031160,
2025-10-15T08:26:06.958318+00:00,2.720000,-0.031920,
2025-10-15T08:26:06.963318+00:00,2.725000,-0.033440,
2025-10-15T08:26:06.968318+00:00,2.730000,-0.030400,
2025-10-15T08:26:06.973318+00:00,2.735000,-0.025080,
2025-10-15T08:26:06.978318+00:00,2.740000,-0.023940,
2025-10-15T08:26:06.983318+00:00,2.745000,-0.027740,
2025-10-15T08:26:06.988318+00:00,2.750000,-0.029640,
2025-10-15T08:26:06.993318+00:00,2.755000,-0.029260,
2025-10-15T08:26:06.998318+00:00,2.760000,-0.027740,
2025-10-15T08:26:07.003318+00:00,2.765000,-0.026600,
2025-10-15T08:26:07.008318+00:00,2.770000,-0.025840,
2025-10-15T08:26:07.013318+00:00,2.775000,-0.025840,
2025-10-15T08:26:07.018318+00:00,2.780000,-0.025460,
2025-10-15T08:26:07.023318+00:00,2.785000,-0.027740,
2025-10-15T08:26:07.028318+00:00,2.790000,-0.028880,
2025-10-15T08:26:07.033318+00:00,2.795000,-0.026980,
2025-10-15T08:26:07.038318+00:00,2.800000,-0.025080,
2025-10-15T08:26:07.043318+00:00,2.805000,-0.025080,
2025-10-15T08:26:07.048318+00:00,2.810000,-0.026600,
2025-10-15T08:26:07.053318+00:00,2.815000,-0.023560,
2025-10-15T08:26:07.058318+00:00,2.820000,-0.020520,
2025-10-15T08:26:07.063318+00:00,2.825000,-0.021280,
2025-10-15T08:26:07.068318+00:00,2.830000,-0.025840,
2025-10-15T08:26:07.073318+00:00,2.835000,-0.030400,
2025-10-15T08:26:07.078318+00:00,2.840000,-0.031160,
2025-10-15T08:26:07.083318+00:00,2.845000,-0.030020,
2025-10-15T08:26:07.088318+00:00,2.850000,-0.025840,
2025-10-15T08:26:07.093318+00:00,2.855000,-0.020900,
2025-10-15T08:26:07.098318+00:00,2.860000,-0.020900,
2025-10-15T08:26:07.103318+00:00,2.865000,-0.024320,
2025-10-15T08:26:07.108318+00:00,2.870000,-0.028500,
2025-10-15T08:26:07.113318+00:00,2.875000,-0.029640,
2025-10-15T08:26:07.118318+00:00,2.880000,-0.026980,
2025-10-15T08:26:07.123318+00:00,2.885000,-0.018240,
2025-10-15T08:26:07.128318+00:00,2.890000,-0.006840,
2025-10-15T08:26:07.133318+00:00,2.895000,0.003800,
2025-10-15T08:26:07.138318+00:00,2.900000,0.007220,
2025-10-15T08:26:07.143318+00:00,2.905000,0.001520,
2025-10-15T08:26:07.148318+00:00,2.910000,-0.014060,
2025-10-15T08:26:07.153318+00:00,2.915000,-0.026220,
2025-10-15T08:26:07.158318+00:00,2.920000,-0.029260,
2025-10-15T08:26:07.163318+00:00,2.925000,-0.026220,
2025-10-15T08:26:07.168318+00:00,2.930000,-0.026980,
2025-10-15T08:26:07.173318+00:00,2.935000,-0.034200,
2025-10-15T08:26:07.178318+00:00,2.940000,-0.042940,
2025-10-15T08:26:07.183318+00:00,2.945000,-0.046740,
2025-10-15T08:26:07.188318+00:00,2.950000,-0.044080,
2025-10-15T08:26:07.193318+00:00,2.955000,-0.038760,
2025-10-15T08:26:07.198318+00:00,2.960000,-0.037240,
2025-10-15T08:26:07.203318+00:00,2.965000,-0.039140,
2025-10-15T08:26:07.208318+00:00,2.970000,-0.038760,
2025-10-15T08:26:07.213318+00:00,2.975000,-0.035720,
2025-10-15T08:26:07.218318+00:00,2.980000,-0.026600,
2025-10-15T08:26:07.223318+00:00,2.985000,-0.020520,
2025-10-15T08:26:07.228318+00:00,2.990000,-0.026600,
2025-10-15T08:26:07.233318+00:00,2.995000,-0.039520,
2025-10-15T08:26:07.238318+00:00,3.000000,-0.030020,
2025-10-15T08:26:07.243318+00:00,3.005000,0.026220,
2025-10-15T08:26:07.248318+00:00,3.010000,0.103360,
2025-10-15T08:26:07.253318+00:00,3.015000,0.158080,
2025-10-15T08:26:07.258318+00:00,3.020000,0.179740,
2025-10-15T08:26:07.263318+00:00,3.025000,0.210140,
2025-10-15T08:26:07.268318+00:00,3.030000,0.262960,
2025-10-15T08:26:07.273318+00:00,3.035000,0.267520,
2025-10-15T08:26:07.278318+00:00,3.040000,0.131100,
2025-10-15T08:26:07.283318+00:00,3.045000,-0.123120,
2025-10-15T08:26:07.288318+00:00,3.050000,-0.351880,
2025-10-15T08:26:07.293318+00:00,3.055000,-0.428260,
2025-10-15T08:26:07.298318+00:00,3.060000,-0.357960,
2025-10-15T08:26:07.303318+00:00,3.065000,-0.241680,
2025-10-15T08:26:07.308318+00:00,3.070000,-0.158080,
2025-10-15T08:26:07.313318+00:00,3.075000,-0.112860,
2025-10-15T08:26:07.318318+00:00,3.080000,-0.077900,
2025-10-15T08:26:07.323318+00:00,3.085000,-0.043320,
2025-10-15T08:26:07.328318+00:00,3.090000,-0.020140,
2025-10-15T08:26:07.333318+00:00,3.095000,-0.009120,
2025-10-15T08:26:07.338318+00:00,3.100000,-0.007600,
2025-10-15T08:26:07.343318+00:00,3.105000,-0.008740,
2025-10-15T08:26:07.348318+00:00,3.110000,-0.011020,
2025-10-15T08:26:07.353318+00:00,3.115000,-0.011400,
2025-10-15T08:26:07.358318+00:00,3.120000,-0.011020,
2025-10-15T08:26:07.363318+00:00,3.125000,-0.009120,
2025-10-15T08:26:07.368318+00:00,3.130000,-0.006840,
2025-10-15T08:26:07.373318+00:00,3.135000,-0.007600,
2025-10-15T08:26:07.378318+00:00,3.140000,-0.009500,
2025-10-15T08:26:07.383318+00:00,3.145000,-0.010640,
2025-10-15T08:26:07.388318+00:00,3.150000,-0.008740,
2025-10-15T08:26:07.393318+00:00,3.155000,-0.004940,
2025-10-15T08:26:07.398318+00:00,3.160000,-0.003040,
2025-10-15T08:26:07.403318+00:00,3.165000,-0.002660,
2025-10-15T08:26:07.408318+00:00,3.170000,-0.002280,
2025-10-15T08:26:07.413318+00:00,3.175000,-0.002280,
2025-10-15T08:26:07.418318+00:00,3.180000,-0.001900,
2025-10-15T08:26:07.423318+00:00,3.185000,0.001140,
2025-10-15T08:26:07.428318+00:00,3.190000,0.005320,
2025-10-15T08:26:07.433318+00:00,3.195000,0.007980,
2025-10-15T08:26:07.438318+00:00,3.200000,0.006080,
2025-10-15T08:26:07.443318+00:00,3.205000,0.004940,
2025-10-15T08:26:07.448318+00:00,3.210000,0.007600,
2025-10-15T08:26:07.453318+00:00,3.215000,0.014440,
2025-10-15T08:26:07.458318+00:00,3.220000,0.017860,
2025-10-15T08:26:07.463318+00:00,3.225000,0.015580,
2025-10-15T08:26:07.468318+00:00,3.230000,0.011780,
2025-10-15T08:26:07.473318+00:00,3.235000,0.009500,
2025-10-15T08:26:07.478318+00:00,3.240000,0.009880,
2025-10-15T08:26:07.483318+00:00,3.245000,0.006840,
2025-10-15T08:26:07.488318+00:00,3.250000,0.000380,
2025-10-15T08:26:07.493318+00:00,3.255000,-0.009500,
2025-10-15T08:26:07.498318+00:00,3.260000,-0.014820,
2025-10-15T08:26:07.503318+00:00,3.265000,-0.014820,
2025-10-15T08:26:07.508318+00:00,3.270000,-0.016340,
2025-10-15T08:26:07.513318+00:00,3.275000,-0.023940,
2025-10-15T08:26:07.518318+00:00,3.280000,-0.039140,
2025-10-15T08:26:07.523318+00:00,3.285000,-0.053960,
2025-10-15T08:26:07.528318+00:00,3.290000,-0.065360,
2025-10-15T08:26:07.533318+00:00,3.295000,-0.079420,
2025-10-15T08:26:07.538318+00:00,3.300000,-0.093480,
2025-10-15T08:26:07.543318+00:00,3.305000,-0.107540,
2025-10-15T08:26:07.548318+00:00,3.310000,-0.120080,
2025-10-15T08:26:07.553318+00:00,3.315000,-0.126540,
2025-10-15T08:26:07.558318+00:00,3.320000,-0.130340,
2025-10-15T08:26:07.563318+00:00,3.325000,-0.133380,
2025-10-15T08:26:07.568318+00:00,3.330000,-0.133000,
2025-10-15T08:26:07.573318+00:00,3.335000,-0.128060,
2025-10-15T08:26:07.578318+00:00,3.340000,-0.115900,
2025-10-15T08:26:07.583318+00:00,3.345000,-0.099560,
2025-10-15T08:26:07.588318+00:00,3.350000,-0.090060,
2025-10-15T08:26:07.593318+00:00,3.355000,-0.087400,
2025-10-15T08:26:07.598318+00:00,3.360000,-0.085880,
2025-10-15T08:26:07.603318+00:00,3.365000,-0.076760,
2025-10-15T08:26:07.608318+00:00,3.370000,-0.061940,
2025-10-15T08:26:07.613318+00:00,3.375000,-0.052060,
2025-10-15T08:26:07.618318+00:00,3.380000,-0.050160,
2025-10-15T08:26:07.623318+00:00,3.385000,-0.050160,
2025-10-15T08:26:07.628318+00:00,3.390000,-0.045220,
2025-10-15T08:26:07.633318+00:00,3.395000,-0.034960,
2025-10-15T08:26:07.638318+00:00,3.400000,-0.027740,
2025-10-15T08:26:07.643318+00:00,3.405000,-0.027740,
2025-10-15T08:26:07.648318+00:00,3.410000,-0.033060,
2025-10-15T08:26:07.653318+00:00,3.415000,-0.033440,
2025-10-15T08:26:07.658318+00:00,3.420000,-0.028120,
2025-10-15T08:26:07.663318+00:00,3.425000,-0.021660,
2025-10-15T08:26:07.668318+00:00,3.430000,-0.020900,
2025-10-15T08:26:07.673318+00:00,3.435000,-0.024700,
2025-10-15T08:26:07.678318+00:00,3.440000,-0.029260,
2025-10-15T08:26:07.683318+00:00,3.445000,-0.029640,
2025-10-15T08:26:07.688318+00:00,3.450000,-0.024700,
2025-10-15T08:26:07.693318+00:00,3.455000,-0.017860,
2025-10-15T08:26:07.698318+00:00,3.460000,-0.017100,
2025-10-15T08:26:07.703318+00:00,3.465000,-0.022800,
2025-10-15T08:26:07.708318+00:00,3.470000,-0.027360,
2025-10-15T08:26:07.713318+00:00,3.475000,-0.030400,
2025-10-15T08:26:07.718318+00:00,3.480000,-0.033820,
2025-10-15T08:26:07.723318+00:00,3.485000,-0.034960,
2025-10-15T08:26:07.728318+00:00,3.490000,-0.036860,
2025-10-15T08:26:07.733318+00:00,3.495000,-0.037240,
2025-10-15T08:26:07.738318+00:00,3.500000,-0.035340,
2025-10-15T08:26:07.743318+00:00,3.505000,-0.031160,
2025-10-15T08:26:07.748318+00:00,3.510000,-0.027740,
2025-10-15T08:26:07.753318+00:00,3.515000,-0.028880,
2025-10-15T08:26:07.758318+00:00,3.520000,-0.031920,
2025-10-15T08:26:07.763318+00:00,3.525000,-0.034200,
2025-10-15T08:26:07.768318+00:00,3.530000,-0.033820,
2025-10-15T08:26:07.773318+00:00,3.535000,-0.031920,
2025-10-15T08:26:07.778318+00:00,3.540000,-0.030400,
2025-10-15T08:26:07.783318+00:00,3.545000,-0.030780,
2025-10-15T08:26:07.788318+00:00,3.550000,-0.032680,
2025-10-15T08:26:07.793318+00:00,3.555000,-0.034580,
2025-10-15T08:26:07.798318+00:00,3.560000,-0.036480,
2025-10-15T08:26:07.803318+00:00,3.565000,-0.037240,
2025-10-15T08:26:07.808318+00:00,3.570000,-0.035720,
2025-10-15T08:26:07.813318+00:00,3.575000,-0.034200,
2025-10-15T08:26:07.818318+00:00,3.580000,-0.033440,
2025-10-15T08:26:07.823318+00:00,3.585000,-0.031540,
2025-10-15T08:26:07.828318+00:00,3.590000,-0.030400,
2025-10-15T08:26:07.833318+00:00,3.595000,-0.027740,
2025-10-15T08:26:07.838318+00:00,3.600000,-0.026600,
2025-10-15T08:26:07.843318+00:00,3.605000,-0.025840,
2025-10-15T08:26:07.848318+00:00,3.610000,-0.025840,
2025-10-15T08:26:07.853318+00:00,3.615000,-0.026600,
2025-10-15T08:26:07.858318+00:00,3.620000,-0.028120,
2025-10-15T08:26:07.863318+00:00,3.625000,-0.030020,
2025-10-15T08:26:07.868318+00:00,3.630000,-0.031920,
2025-10-15T08:26:07.873318+00:00,3.635000,-0.031540,
2025-10-15T08:26:07.878318+00:00,3.640000,-0.031160,
2025-10-15T08:26:07.883318+00:00,3.645000,-0.030020,
2025-10-15T08:26:07.888318+00:00,3.650000,-0.030020,
2025-10-15T08:26:07.893318+00:00,3.655000,-0.029640,
2025-10-15T08:26:07.898318+00:00,3.660000,-0.028500,
2025-10-15T08:26:07.903318+00:00,3.665000,-0.027740,
2025-10-15T08:26:07.908318+00:00,3.670000,-0.027740,
2025-10-15T08:26:07.913318+00:00,3.675000,-0.029260,
2025-10-15T08:26:07.918318+00:00,3.680000,-0.028500,
2025-10-15T08:26:07.923318+00:00,3.685000,-0.027360,
2025-10-15T08:26:07.928318+00:00,3.690000,-0.025080,
2025-10-15T08:26:07.933318+00:00,3.695000,-0.023940,
2025-10-15T08:26:07.938318+00:00,3.700000,-0.026220,
2025-10-15T08:26:07.943318+00:00,3.705000,-0.028120,
2025-10-15T08:26:07.948318+00:00,3.710000,-0.029260,
2025-10-15T08:26:07.953318+00:00,3.715000,-0.028120,
2025-10-15T08:26:07.958318+00:00,3.720000,-0.025080,
2025-10-15T08:26:07.963318+00:00,3.725000,-0.024700,
2025-10-15T08:26:07.968318+00:00,3.730000,-0.028500,
2025-10-15T08:26:07.973318+00:00,3.735000,-0.030780,
2025-10-15T08:26:07.978318+00:00,3.740000,-0.029640,
2025-10-15T08:26:07.983318+00:00,3.745000,-0.025080,
2025-10-15T08:26:07.988318+00:00,3.750000,-0.020140,
2025-10-15T08:26:07.993318+00:00,3.755000,-0.019760,
2025-10-15T08:26:07.998318+00:00,3.760000,-0.023940,
2025-10-15T08:26:08.003318+00:00,3.765000,-0.027740,
2025-10-15T08:26:08.008318+00:00,3.770000,-0.028500,
2025-10-15T08:26:08.013318+00:00,3.775000,-0.021280,
2025-10-15T08:26:08.018318+00:00,3.780000,-0.008360,
2025-10-15T08:26:08.023318+00:00,3.785000,0.001900,
2025-10-15T08:26:08.028318+00:00,3.790000,0.003040,
2025-10-15T08:26:08.033318+00:00,3.795000,-0.006460,
2025-10-15T08:26:08.038318+00:00,3.800000,-0.020900,
2025-10-15T08:26:08.043318+00:00,3.805000,-0.034580,
2025-10-15T08:26:08.048318+00:00,3.810000,-0.042180,
2025-10-15T08:26:08.053318+00:00,3.815000,-0.044080,
2025-10-15T08:26:08.058318+00:00,3.820000,-0.042560,
2025-10-15T08:26:08.063318+00:00,3.825000,-0.041040,
2025-10-15T08:26:08.068318+00:00,3.830000,-0.043700,
2025-10-15T08:26:08.073318+00:00,3.835000,-0.047120,
2025-10-15T08:26:08.078318+00:00,3.840000,-0.045600,
2025-10-15T08:26:08.083318+00:00,3.845000,-0.041800,
2025-10-15T08:26:08.088318+00:00,3.850000,-0.038760,
2025-10-15T08:26:08.093318+00:00,3.855000,-0.039140,
2025-10-15T08:26:08.098318+00:00,3.860000,-0.040280,
2025-10-15T08:26:08.103318+00:00,3.865000,-0.037240,
2025-10-15T08:26:08.108318+00:00,3.870000,-0.031160,
2025-10-15T08:26:08.113318+00:00,3.875000,-0.028880,
2025-10-15T08:26:08.118318+00:00,3.880000,-0.041040,
2025-10-15T08:26:08.123318+00:00,3.885000,-0.047500,
2025-10-15T08:26:08.128318+00:00,3.890000,-0.013300,
2025-10-15T08:26:08.133318+00:00,3.895000,0.064600,
2025-10-15T08:26:08.138318+00:00,3.900000,0.138320,
2025-10-15T08:26:08.143318+00:00,3.905000,0.170240,
2025-10-15T08:26:08.148318+00:00,3.910000,0.180120,
2025-10-15T08:26:08.153318+00:00,3.915000,0.211280,
2025-10-15T08:26:08.158318+00:00,3.920000,0.243200,
2025-10-15T08:26:08.163318+00:00,3.925000,0.183540,
2025-10-15T08:26:08.168318+00:00,3.930000,-0.015580,
2025-10-15T08:26:08.173318+00:00,3.935000,-0.259160,
2025-10-15T08:26:08.178318+00:00,3.940000,-0.398240,
2025-10-15T08:26:08.183318+00:00,3.945000,-0.376200,
2025-10-15T08:26:08.188318+00:00,3.950000,-0.268660,
2025-10-15T08:26:08.193318+00:00,3.955000,-0.179740,
2025-10-15T08:26:08.198318+00:00,3.960000,-0.131860,
2025-10-15T08:26:08.203318+00:00,3.965000,-0.094620,
2025-10-15T08:26:08.208318+00:00,3.970000,-0.049780,
2025-10-15T08:26:08.213318+00:00,3.975000,-0.014440,
2025-10-15T08:26:08.218318+00:00,3.980000,-0.002660,
2025-10-15T08:26:08.223318+00:00,3.985000,-0.003800,
2025-10-15T08:26:08.228318+00:00,3.990000,-0.009500,
2025-10-15T08:26:08.233318+00:00,3.995000,-0.011400,
2025-10-15T08:26:08.238318+00:00,4.000000,-0.012540,
2025-10-15T08:26:08.243318+00:00,4.005000,-0.012160,
2025-10-15T08:26:08.248318+00:00,4.010000,-0.009500,
2025-10-15T08:26:08.253318+00:00,4.015000,-0.008360,
2025-10-15T08:26:08.258318+00:00,4.020000,-0.007220,
2025-10-15T08:26:08.263318+00:00,4.025000,-0.008740,
2025-10-15T08:26:08.268318+00:00,4.030000,-0.011020,
2025-10-15T08:26:08.273318+00:00,4.035000,-0.013680,
2025-10-15T08:26:08.278318+00:00,4.040000,-0.011400,
2025-10-15T08:26:08.283318+00:00,4.045000,-0.006460,
2025-10-15T08:26:08.288318+00:00,4.050000,-0.005700,
2025-10-15T08:26:08.293318+00:00,4.055000,-0.007220,
2025-10-15T08:26:08.298318+00:00,4.060000,-0.011020,
2025-10-15T08:26:08.303318+00:00,4.065000,-0.012540,
2025-10-15T08:26:08.308318+00:00,4.070000,-0.008360,
2025-10-15T08:26:08.313318+00:00,4.075000,-0.002280,
2025-10-15T08:26:08.318318+00:00,4.080000,0.003040,
2025-10-15T08:26:08.323318+00:00,4.085000,0.003800,
2025-10-15T08:26:08.328318+00:00,4.090000,0.001140,
2025-10-15T08:26:08.333318+00:00,4.095000,0.000000,
2025-10-15T08:26:08.338318+00:00,4.100000,0.001900,
2025-10-15T08:26:08.343318+00:00,4.105000,0.003420,
2025-10-15T08:26:08.348318+00:00,4.110000,0.005700,
2025-10-15T08:26:08.353318+00:00,4.115000,0.005700,
2025-10-15T08:26:08.358318+00:00,4.120000,0.011020,
2025-10-15T08:26:08.363318+00:00,4.125000,0.016340,
2025-10-15T08:26:08.368318+00:00,4.130000,0.015960,
2025-10-15T08:26:08.373318+00:00,4.135000,0.011020,
2025-10-15T08:26:08.378318+00:00,4.140000,0.001900,
2025-10-15T08:26:08.383318+00:00,4.145000,-0.007980,
2025-10-15T08:26:08.388318+00:00,4.150000,-0.015200,
2025-10-15T08:26:08.393318+00:00,4.155000,-0.022420,
2025-10-15T08:26:08.398318+00:00,4.160000,-0.025840,
2025-10-15T08:26:08.403318+00:00,4.165000,-0.028880,
2025-10-15T08:26:08.408318+00:00,4.170000,-0.034200,
2025-10-15T08:26:08.413318+00:00,4.175000,-0.047120,
2025-10-15T08:26:08.418318+00:00,4.180000,-0.063840,
2025-10-15T08:26:08.423318+00:00,4.185000,-0.082460,
2025-10-15T08:26:08.428318+00:00,4.190000,-0.097280,
2025-10-15T08:26:08.433318+00:00,4.195000,-0.108680,
2025-10-15T08:26:08.438318+00:00,4.200000,-0.118180,
2025-10-15T08:26:08.443318+00:00,4.205000,-0.125780,
2025-10-15T08:26:08.448318+00:00,4.210000,-0.131100,
2025-10-15T08:26:08.453318+00:00,4.215000,-0.134520,
2025-10-15T08:26:08.458318+00:00,4.220000,-0.133380,
2025-10-15T08:26:08.463318+00:00,4.225000,-0.125400,
2025-10-15T08:26:08.468318+00:00,4.230000,-0.112860,
2025-10-15T08:26:08.473318+00:00,4.235000,-0.100320,
2025-10-15T08:26:08.478318+00:00,4.240000,-0.091580,
2025-10-15T08:26:08.483318+00:00,4.245000,-0.085120,
2025-10-15T08:26:08.488318+00:00,4.250000,-0.076380,
2025-10-15T08:26:08.493318+00:00,4.255000,-0.067260,
2025-10-15T08:26:08.498318+00:00,4.260000,-0.059660,
2025-10-15T08:26:08.503318+00:00,4.265000,-0.055480,
2025-10-15T08:26:08.508318+00:00,4.270000,-0.054720,
2025-10-15T08:26:08.513318+00:00,4.275000,-0.051300,
2025-10-15T08:26:08.518318+00:00,4.280000,-0.044840,
2025-10-15T08:26:08.523318+00:00,4.285000,-0.038380,
2025-10-15T08:26:08.528318+00:00,4.290000,-0.033060,
2025-10-15T08:26:08.533318+00:00,4.295000,-0.031540,
2025-10-15T08:26:08.538318+00:00,4.300000,-0.028880,
2025-10-15T08:26:08.543318+00:00,4.305000,-0.026980,
2025-10-15T08:26:08.548318+00:00,4.310000,-0.025080,
2025-10-15T08:26:08.553318+00:00,4.315000,-0.023940,
2025-10-15T08:26:08.558318+00:00,4.320000,-0.023940,
2025-10-15T08:26:08.563318+00:00,4.325000,-0.022800,
2025-10-15T08:26:08.568318+00:00,4.330000,-0.023560,
2025-10-15T08:26:08.573318+00:00,4.335000,-0.027360,
2025-10-15T08:26:08.578318+00:00,4.340000,-0.031160,
2025-10-15T08:26:08.583318+00:00,4.345000,-0.033820,
2025-10-15T08:26:08.588318+00:00,4.350000,-0.032680,
2025-10-15T08:26:08.593318+00:00,4.355000,-0.028880,
2025-10-15T08:26:08.598318+00:00,4.360000,-0.025460,
2025-10-15T08:26:08.603318+00:00,4.365000,-0.025460,
2025-10-15T08:26:08.608318+00:00,4.370000,-0.026980,
2025-10-15T08:26:08.613318+00:00,4.375000,-0.029640,
2025-10-15T08:26:08.618318+00:00,4.380000,-0.032300,
2025-10-15T08:26:08.623318+00:00,4.385000,-0.035340,
2025-10-15T08:26:08.628318+00:00,4.390000,-0.035720,
2025-10-15T08:26:08.633318+00:00,4.395000,-0.034580,
2025-10-15T08:26:08.638318+00:00,4.400000,-0.034580,
2025-10-15T08:26:08.643318+00:00,4.405000,-0.037240,
2025-10-15T08:26:08.648318+00:00,4.410000,-0.036480,
2025-10-15T08:26:08.653318+00:00,4.415000,-0.034960,
2025-10-15T08:26:08.658318+00:00,4.420000,-0.035720,
2025-10-15T08:26:08.663318+00:00,4.425000,-0.039520,
2025-10-15T08:26:08.668318+00:00,4.430000,-0.042560,
2025-10-15T08:26:08.673318+00:00,4.435000,-0.039140,
2025-10-15T08:26:08.678318+00:00,4.440000,-0.029640,
2025-10-15T08:26:08.683318+00:00,4.445000,-0.025080,
2025-10-15T08:26:08.688318+00:00,4.450000,-0.026980,
2025-10-15T08:26:08.693318+00:00,4.455000,-0.033060,
2025-10-15T08:26:08.698318+00:00,4.460000,-0.037240,
2025-10-15T08:26:08.703318+00:00,4.465000,-0.038380,
2025-10-15T08:26:08.708318+00:00,4.470000,-0.037240,
2025-10-15T08:26:08.713318+00:00,4.475000,-0.035340,
2025-10-15T08:26:08.718318+00:00,4.480000,-0.033820,
2025-10-15T08:26:08.723318+00:00,4.485000,-0.034580,
2025-10-15T08:26:08.728318+00:00,4.490000,-0.036100,
2025-10-15T08:26:08.733318+00:00,4.495000,-0.038760,
2025-10-15T08:26:08.738318+00:00,4.500000,-0.038380,
2025-10-15T08:26:08.743318+00:00,4.505000,-0.035340,
2025-10-15T08:26:08.748318+00:00,4.510000,-0.030400,
2025-10-15T08:26:08.753318+00:00,4.515000,-0.025840,
2025-10-15T08:26:08.758318+00:00,4.520000,-0.024320,
2025-10-15T08:26:08.763318+00:00,4.525000,-0.026220,
2025-10-15T08:26:08.768318+00:00,4.530000,-0.030400,
2025-10-15T08:26:08.773318+00:00,4.535000,-0.033060,
2025-10-15T08:26:08.778318+00:00,4.540000,-0.034200,
2025-10-15T08:26:08.783318+00:00,4.545000,-0.033820,
2025-10-15T08:26:08.788318+00:00,4.550000,-0.031540,
2025-10-15T08:26:08.793318+00:00,4.555000,-0.030400,
2025-10-15T08:26:08.798318+00:00,4.560000,-0.031160,
2025-10-15T08:26:08.803318+00:00,4.565000,-0.032300,
2025-10-15T08:26:08.808318+00:00,4.570000,-0.032680,
2025-10-15T08:26:08.813318+00:00,4.575000,-0.031160,
2025-10-15T08:26:08.818318+00:00,4.580000,-0.030400,
2025-10-15T08:26:08.823318+00:00,4.585000,-0.030780,
2025-10-15T08:26:08.828318+00:00,4.590000,-0.031920,
2025-10-15T08:26:08.833318+00:00,4.595000,-0.032300,
2025-10-15T08:26:08.838318+00:00,4.600000,-0.030020,
2025-10-15T08:26:08.843318+00:00,4.605000,-0.027740,
2025-10-15T08:26:08.848318+00:00,4.610000,-0.027740,
2025-10-15T08:26:08.853318+00:00,4.615000,-0.031540,
2025-10-15T08:26:08.858318+00:00,4.620000,-0.036860,
2025-10-15T08:26:08.863318+00:00,4.625000,-0.038760,
2025-10-15T08:26:08.868318+00:00,4.630000,-0.038000,
2025-10-15T08:26:08.873318+00:00,4.635000,-0.036860,
2025-10-15T08:26:08.878318+00:00,4.640000,-0.036100,
2025-10-15T08:26:08.883318+00:00,4.645000,-0.032680,
2025-10-15T08:26:08.888318+00:00,4.650000,-0.026220,
2025-10-15T08:26:08.893318+00:00,4.655000,-0.021280,
2025-10-15T08:26:08.898318+00:00,4.660000,-0.023560,
2025-10-15T08:26:08.903318+00:00,4.665000,-0.030400,
2025-10-15T08:26:08.908318+00:00,4.670000,-0.038760,
2025-10-15T08:26:08.913318+00:00,4.675000,-0.038000,
2025-10-15T08:26:08.918318+00:00,4.680000,-0.030780,
2025-10-15T08:26:08.923318+00:00,4.685000,-0.023940,
2025-10-15T08:26:08.928318+00:00,4.690000,-0.017100,
2025-10-15T08:26:08.933318+00:00,4.695000,-0.007980,
2025-10-15T08:26:08.938318+00:00,4.700000,-0.001140,
2025-10-15T08:26:08.943318+00:00,4.705000,-0.001900,
2025-10-15T08:26:08.948318+00:00,4.710000,-0.014060,
2025-10-15T08:26:08.953318+00:00,4.715000,-0.031920,
2025-10-15T08:26:08.958318+00:00,4.720000,-0.042180,
2025-10-15T08:26:08.963318+00:00,4.725000,-0.043700,
2025-10-15T08:26:08.968318+00:00,4.730000,-0.040280,
2025-10-15T08:26:08.973318+00:00,4.735000,-0.037240,
2025-10-15T08:26:08.978318+00:00,4.740000,-0.038380,
2025-10-15T08:26:08.983318+00:00,4.745000,-0.044080,
2025-10-15T08:26:08.988318+00:00,4.750000,-0.049400,
2025-10-15T08:26:08.993318+00:00,4.755000,-0.050160,
2025-10-15T08:26:08.998318+00:00,4.760000,-0.044840,
2025-10-15T08:26:09.003318+00:00,4.765000,-0.039140,
2025-10-15T08:26:09.008318+00:00,4.770000,-0.035720,
2025-10-15T08:26:09.013318+00:00,4.775000,-0.038000,
2025-10-15T08:26:09.018318+00:00,4.780000,-0.037240,
2025-10-15T08:26:09.023318+00:00,4.785000,-0.033060,
2025-10-15T08:26:09.028318+00:00,4.790000,-0.031160,
2025-10-15T08:26:09.033318+00:00,4.795000,-0.036100,
2025-10-15T08:26:09.038318+00:00,4.800000,-0.025080,
2025-10-15T08:26:09.043318+00:00,4.805000,0.027740,
2025-10-15T08:26:09.048318+00:00,4.810000,0.108680,
2025-10-15T08:26:09.053318+00:00,4.815000,0.172140,
2025-10-15T08:26:09.058318+00:00,4.820000,0.203680,
2025-10-15T08:26:09.063318+00:00,4.825000,0.231040,
2025-10-15T08:26:09.068318+00:00,4.830000,0.261820,
2025-10-15T08:26:09.073318+00:00,4.835000,0.232180,
2025-10-15T08:26:09.078318+00:00,4.840000,0.071820,
2025-10-15T08:26:09.083318+00:00,4.845000,-0.186960,
2025-10-15T08:26:09.088318+00:00,4.850000,-0.406980,
2025-10-15T08:26:09.093318+00:00,4.855000,-0.470060,
2025-10-15T08:26:09.098318+00:00,4.860000,-0.382280,
2025-10-15T08:26:09.103318+00:00,4.865000,-0.243200,
2025-10-15T08:26:09.108318+00:00,4.870000,-0.138700,
2025-10-15T08:26:09.113318+00:00,4.875000,-0.084740,
2025-10-15T08:26:09.118318+00:00,4.880000,-0.053200,
2025-10-15T08:26:09.123318+00:00,4.885000,-0.025080,
2025-10-15T08:26:09.128318+00:00,4.890000,-0.005700,
2025-10-15T08:26:09.133318+00:00,4.895000,-0.001140,
2025-10-15T08:26:09.138318+00:00,4.900000,-0.006840,
2025-10-15T08:26:09.143318+00:00,4.905000,-0.010640,
2025-10-15T08:26:09.148318+00:00,4.910000,-0.008740,
2025-10-15T08:26:09.153318+00:00,4.915000,-0.000760,
2025-10-15T08:26:09.158318+00:00,4.920000,0.000760,
2025-10-15T08:26:09.163318+00:00,4.925000,-0.004180,
2025-10-15T08:26:09.168318+00:00,4.930000,-0.011020,
2025-10-15T08:26:09.173318+00:00,4.935000,-0.012920,
2025-10-15T08:26:09.178318+00:00,4.940000,-0.010260,
2025-10-15T08:26:09.183318+00:00,4.945000,-0.004560,
2025-10-15T08:26:09.188318+00:00,4.950000,0.000000,
2025-10-15T08:26:09.193318+00:00,4.955000,0.001140,
2025-10-15T08:26:09.198318+00:00,4.960000,-0.004560,
2025-10-15T08:26:09.203318+00:00,4.965000,-0.009500,
2025-10-15T08:26:09.208318+00:00,4.970000,-0.010640,
2025-10-15T08:26:09.213318+00:00,4.975000,-0.006840,
2025-10-15T08:26:09.218318+00:00,4.980000,-0.002280,
2025-10-15T08:26:09.223318+00:00,4.985000,-0.000380,
2025-10-15T08:26:09.228318+00:00,4.990000,-0.002280,
2025-10-15T08:26:09.233318+00:00,4.995000,-0.004560,
2025-10-15T08:26:09.238318+00:00,5.000000,-0.003040,
2025-10-15T08:26:09.243318+00:00,5.005000,0.001520,
2025-10-15T08:26:09.248318+00:00,5.010000,0.005320,
2025-10-15T08:26:09.253318+00:00,5.015000,0.009120,
2025-10-15T08:26:09.258318+00:00,5.020000,0.011020,
2025-10-15T08:26:09.263318+00:00,5.025000,0.011400,
2025-10-15T08:26:09.268318+00:00,5.030000,0.008740,
2025-10-15T08:26:09.273318+00:00,5.035000,0.006840,
2025-10-15T08:26:09.278318+00:00,5.040000,0.006840,
2025-10-15T08:26:09.283318+00:00,5.045000,0.009120,
2025-10-15T08:26:09.288318+00:00,5.050000,0.007980,
2025-10-15T08:26:09.293318+00:00,5.055000,0.004940,
2025-10-15T08:26:09.298318+00:00,5.060000,-0.002660,
2025-10-15T08:26:09.303318+00:00,5.065000,-0.011020,
2025-10-15T08:26:09.308318+00:00,5.070000,-0.022040,
2025-10-15T08:26:09.313318+00:00,5.075000,-0.029640,
2025-10-15T08:26:09.318318+00:00,5.080000,-0.036860,
2025-10-15T08:26:09.323318+00:00,5.085000,-0.046360,
2025-10-15T08:26:09.328318+00:00,5.090000,-0.060040,
2025-10-15T08:26:09.333318+00:00,5.095000,-0.076760,
2025-10-15T08:26:09.338318+00:00,5.100000,-0.094240,
2025-10-15T08:26:09.343318+00:00,5.105000,-0.108300,
2025-10-15T08:26:09.348318+00:00,5.110000,-0.122360,
2025-10-15T08:26:09.353318+00:00,5.115000,-0.133380,
2025-10-15T08:26:09.358318+00:00,5.120000,-0.140220,
2025-10-15T08:26:09.363318+00:00,5.125000,-0.140220,
2025-10-15T08:26:09.368318+00:00,5.130000,-0.135660,
2025-10-15T08:26:09.373318+00:00,5.135000,-0.130340,
2025-10-15T08:26:09.378318+00:00,5.140000,-0.125020,
2025-10-15T08:26:09.383318+00:00,5.145000,-0.117800,
2025-10-15T08:26:09.388318+00:00,5.150000,-0.104880,
2025-10-15T08:26:09.393318+00:00,5.155000,-0.093860,
2025-10-15T08:26:09.398318+00:00,5.160000,-0.086640,
2025-10-15T08:26:09.403318+00:00,5.165000,-0.080180,
2025-10-15T08:26:09.408318+00:00,5.170000,-0.068780,
2025-10-15T08:26:09.413318+00:00,5.175000,-0.058520,
2025-10-15T08:26:09.418318+00:00,5.180000,-0.051680,
2025-10-15T08:26:09.423318+00:00,5.185000,-0.049020,
2025-10-15T08:26:09.428318+00:00,5.190000,-0.047880,
2025-10-15T08:26:09.433318+00:00,5.195000,-0.044460,
2025-10-15T08:26:09.438318+00:00,5.200000,-0.038380,
2025-10-15T08:26:09.443318+00:00,5.205000,-0.032300,
2025-10-15T08:26:09.448318+00:00,5.210000,-0.029260,
2025-10-15T08:26:09.453318+00:00,5.215000,-0.028880,
2025-10-15T08:26:09.458318+00:00,5.220000,-0.028120,
2025-10-15T08:26:09.463318+00:00,5.225000,-0.025840,
2025-10-15T08:26:09.468318+00:00,5.230000,-0.024320,
2025-10-15T08:26:09.473318+00:00,5.235000,-0.025840,
2025-10-15T08:26:09.478318+00:00,5.240000,-0.027740,
2025-10-15T08:26:09.483318+00:00,5.245000,-0.028880,
2025-10-15T08:26:09.488318+00:00,5.250000,-0.029640,
2025-10-15T08:26:09.493318+00:00,5.255000,-0.030400,
2025-10-15T08:26:09.498318+00:00,5.260000,-0.031540,
2025-10-15T08:26:09.503318+00:00,5.265000,-0.030400,
2025-10-15T08:26:09.508318+00:00,5.270000,-0.028880,
2025-10-15T08:26:09.513318+00:00,5.275000,-0.028120,
2025-10-15T08:26:09.518318+00:00,5.280000,-0.031160,
2025-10-15T08:26:09.523318+00:00,5.285000,-0.034580,
2025-10-15T08:26:09.528318+00:00,5.290000,-0.036100,
2025-10-15T08:26:09.533318+00:00,5.295000,-0.034960,
2025-10-15T08:26:09.538318+00:00,5.300000,-0.032300,
2025-10-15T08:26:09.543318+00:00,5.305000,-0.031160,
2025-10-15T08:26:09.548318+00:00,5.310000,-0.033820,
2025-10-15T08:26:09.553318+00:00,5.315000,-0.036860,
2025-10-15T08:26:09.558318+00:00,5.320000,-0.038000,
2025-10-15T08:26:09.563318+00:00,5.325000,-0.038000,
2025-10-15T08:26:09.568318+00:00,5.330000,-0.036480,
2025-10-15T08:26:09.573318+00:00,5.335000,-0.035720,
2025-10-15T08:26:09.578318+00:00,5.340000,-0.034580,
2025-10-15T08:26:09.583318+00:00,5.345000,-0.033060,
2025-10-15T08:26:09.588318+00:00,5.350000,-0.033820,
2025-10-15T08:26:09.593318+00:00,5.355000,-0.034960,
2025-10-15T08:26:09.598318+00:00,5.360000,-0.034580,
2025-10-15T08:26:09.603318+00:00,5.365000,-0.032300,
2025-10-15T08:26:09.608318+00:00,5.370000,-0.030780,
2025-10-15T08:26:09.613318+00:00,5.375000,-0.031540,
2025-10-15T08:26:09.618318+00:00,5.380000,-0.033820,
2025-10-15T08:26:09.623318+00:00,5.385000,-0.033820,
2025-10-15T08:26:09.628318+00:00,5.390000,-0.031920,
2025-10-15T08:26:09.633318+00:00,5.395000,-0.030400,
2025-10-15T08:26:09.638318+00:00,5.400000,-0.030400,
2025-10-15T08:26:09.643318+00:00,5.405000,-0.029260,
2025-10-15T08:26:09.648318+00:00,5.410000,-0.029260,
2025-10-15T08:26:09.653318+00:00,5.415000,-0.029640,
2025-10-15T08:26:09.658318+00:00,5.420000,-0.031540,
2025-10-15T08:26:09.663318+00:00,5.425000,-0.033820,
2025-10-15T08:26:09.668318+00:00,5.430000,-0.033440,
2025-10-15T08:26:09.673318+00:00,5.435000,-0.031160,
2025-10-15T08:26:09.678318+00:00,5.440000,-0.028880,
2025-10-15T08:26:09.683318+00:00,5.445000,-0.027740,
2025-10-15T08:26:09.688318+00:00,5.450000,-0.028120,
2025-10-15T08:26:09.693318+00:00,5.455000,-0.029640,
2025-10-15T08:26:09.698318+00:00,5.460000,-0.029640,
2025-10-15T08:26:09.703318+00:00,5.465000,-0.028500,
2025-10-15T08:26:09.708318+00:00,5.470000,-0.026980,
2025-10-15T08:26:09.713318+00:00,5.475000,-0.024700,
2025-10-15T08:26:09.718318+00:00,5.480000,-0.023560,
2025-10-15T08:26:09.723318+00:00,5.485000,-0.025080,
2025-10-15T08:26:09.728318+00:00,5.490000,-0.026220,
2025-10-15T08:26:09.733318+00:00,5.495000,-0.028500,
2025-10-15T08:26:09.738318+00:00,5.500000,-0.030780,
2025-10-15T08:26:09.743318+00:00,5.505000,-0.031540,
2025-10-15T08:26:09.748318+00:00,5.510000,-0.030400,
2025-10-15T08:26:09.753318+00:00,5.515000,-0.029260,
2025-10-15T08:26:09.758318+00:00,5.520000,-0.028880,
2025-10-15T08:26:09.763318+00:00,5.525000,-0.031160,
2025-10-15T08:26:09.768318+00:00,5.530000,-0.030400,
2025-10-15T08:26:09.773318+00:00,5.535000,-0.028120,
2025-10-15T08:26:09.778318+00:00,5.540000,-0.026980,
2025-10-15T08:26:09.783318+00:00,5.545000,-0.029260,
2025-10-15T08:26:09.788318+00:00,5.550000,-0.031540,
2025-10-15T08:26:09.793318+00:00,5.555000,-0.029640,
2025-10-15T08:26:09.798318+00:00,5.560000,-0.025460,
2025-10-15T08:26:09.803318+00:00,5.565000,-0.022040,
2025-10-15T08:26:09.808318+00:00,5.570000,-0.023180,
2025-10-15T08:26:09.813318+00:00,5.575000,-0.030020,
2025-10-15T08:26:09.818318+00:00,5.580000,-0.034200,
2025-10-15T08:26:09.823318+00:00,5.585000,-0.032300,
2025-10-15T08:26:09.828318+00:00,5.590000,-0.024700,
2025-10-15T08:26:09.833318+00:00,5.595000,-0.016340,
2025-10-15T08:26:09.838318+00:00,5.600000,-0.007980,
2025-10-15T08:26:09.843318+00:00,5.605000,-0.002660,
2025-10-15T08:26:09.848318+00:00,5.610000,0.000380,
2025-10-15T08:26:09.853318+00:00,5.615000,-0.004560,
2025-10-15T08:26:09.858318+00:00,5.620000,-0.014820,
2025-10-15T08:26:09.863318+00:00,5.625000,-0.025460,
2025-10-15T08:26:09.868318+00:00,5.630000,-0.030020,
2025-10-15T08:26:09.873318+00:00,5.635000,-0.031540,
2025-10-15T08:26:09.878318+00:00,5.640000,-0.033060,
2025-10-15T08:26:09.883318+00:00,5.645000,-0.038000,
2025-10-15T08:26:09.888318+00:00,5.650000,-0.042940,
2025-10-15T08:26:09.893318+00:00,5.655000,-0.045220,
2025-10-15T08:26:09.898318+00:00,5.660000,-0.043320,
2025-10-15T08:26:09.903318+00:00,5.665000,-0.039520,
2025-10-15T08:26:09.908318+00:00,5.670000,-0.037240,
2025-10-15T08:26:09.913318+00:00,5.675000,-0.039140,
2025-10-15T08:26:09.918318+00:00,5.680000,-0.042180,
2025-10-15T08:26:09.923318+00:00,5.685000,-0.043700,
2025-10-15T08:26:09.928318+00:00,5.690000,-0.041420,
2025-10-15T08:26:09.933318+00:00,5.695000,-0.035720,
2025-10-15T08:26:09.938318+00:00,5.700000,-0.031540,
2025-10-15T08:26:09.943318+00:00,5.705000,-0.039140,
2025-10-15T08:26:09.948318+00:00,5.710000,-0.041040,
2025-10-15T08:26:09.953318+00:00,5.715000,-0.008740,
2025-10-15T08:26:09.958318+00:00,5.720000,0.060040,
2025-10-15T08:26:09.963318+00:00,5.725000,0.127300,
2025-10-15T08:26:09.968318+00:00,5.730000,0.161500,
2025-10-15T08:26:09.973318+00:00,5.735000,0.185060,
2025-10-15T08:26:09.978318+00:00,5.740000,0.241300,
2025-10-15T08:26:09.983318+00:00,5.745000,0.299060,
2025-10-15T08:26:09.988318+00:00,5.750000,0.251180,
2025-10-15T08:26:09.993318+00:00,5.755000,0.040660,
2025-10-15T08:26:09.998318+00:00,5.760000,-0.235600,
2025-10-15T08:26:10.003318+00:00,5.765000,-0.415720,
2025-10-15T08:26:10.008318+00:00,5.770000,-0.422180,
2025-10-15T08:26:10.013318+00:00,5.775000,-0.318440,
2025-10-15T08:26:10.018318+00:00,5.780000,-0.212040,
2025-10-15T08:26:10.023318+00:00,5.785000,-0.148960,
2025-10-15T08:26:10.028318+00:00,5.790000,-0.106020,
2025-10-15T08:26:10.033318+00:00,5.795000,-0.064980,
2025-10-15T08:26:10.038318+00:00,5.800000,-0.031160,
2025-10-15T08:26:10.043318+00:00,5.805000,-0.015200,
2025-10-15T08:26:10.048318+00:00,5.810000,-0.012160,
2025-10-15T08:26:10.053318+00:00,5.815000,-0.012540,
2025-10-15T08:26:10.058318+00:00,5.820000,-0.013300,
2025-10-15T08:26:10.063318+00:00,5.825000,-0.012920,
2025-10-15T08:26:10.068318+00:00,5.830000,-0.013300,
2025-10-15T08:26:10.073318+00:00,5.835000,-0.013300,
2025-10-15T08:26:10.078318+00:00,5.840000,-0.012160,
2025-10-15T08:26:10.083318+00:00,5.845000,-0.011780,
2025-10-15T08:26:10.088318+00:00,5.850000,-0.010640,
2025-10-15T08:26:10.093318+00:00,5.855000,-0.009120,
2025-10-15T08:26:10.098318+00:00,5.860000,-0.007980,
2025-10-15T08:26:10.103318+00:00,5.865000,-0.008360,
2025-10-15T08:26:10.108318+00:00,5.870000,-0.009500,
2025-10-15T08:26:10.113318+00:00,5.875000,-0.009500,
2025-10-15T08:26:10.118318+00:00,5.880000,-0.007220,
2025-10-15T08:26:10.123318+00:00,5.885000,-0.003040,
2025-10-15T08:26:10.128318+00:00,5.890000,0.000760,
2025-10-15T08:26:10.133318+00:00,5.895000,-0.001520,
2025-10-15T08:26:10.138318+00:00,5.900000,-0.004940,
2025-10-15T08:26:10.143318+00:00,5.905000,-0.004180,
2025-10-15T08:26:10.148318+00:00,5.910000,0.001900,
2025-10-15T08:26:10.153318+00:00,5.915000,0.007980,
2025-10-15T08:26:10.158318+00:00,5.920000,0.009880,
2025-10-15T08:26:10.163318+00:00,5.925000,0.007980,
2025-10-15T08:26:10.168318+00:00,5.930000,0.006840,
2025-10-15T08:26:10.173318+00:00,5.935000,0.007980,
2025-10-15T08:26:10.178318+00:00,5.940000,0.011020,
2025-10-15T08:26:10.183318+00:00,5.945000,0.011400,
2025-10-15T08:26:10.188318+00:00,5.950000,0.011780,
2025-10-15T08:26:10.193318+00:00,5.955000,0.011400,
2025-10-15T08:26:10.198318+00:00,5.960000,0.008360,
2025-10-15T08:26:10.203318+00:00,5.965000,-0.000380,
2025-10-15T08:26:10.208318+00:00,5.970000,-0.008360,
2025-10-15T08:26:10.213318+00:00,5.975000,-0.013680,
2025-10-15T08:26:10.218318+00:00,5.980000,-0.015200,
2025-10-15T08:26:10.223318+00:00,5.985000,-0.020520,
2025-10-15T08:26:10.228318+00:00,5.990000,-0.031540,
2025-10-15T08:26:10.233318+00:00,5.995000,-0.047500,
2025-10-15T08:26:10.238318+00:00,6.000000,-0.062320,
2025-10-15T08:26:10.243318+00:00,6.005000,-0.071440,
2025-10-15T08:26:10.248318+00:00,6.010000,-0.082080,
2025-10-15T08:26:10.253318+00:00,6.015000,-0.092720,
2025-10-15T08:26:10.258318+00:00,6.020000,-0.106780,
2025-10-15T08:26:10.263318+00:00,6.025000,-0.121220,
2025-10-15T08:26:10.268318+00:00,6.030000,-0.134900,
2025-10-15T08:26:10.273318+00:00,6.035000,-0.139840,
2025-10-15T08:26:10.278318+00:00,6.040000,-0.136800,
2025-10-15T08:26:10.283318+00:00,6.045000,-0.128060,
2025-10-15T08:26:10.288318+00:00,6.050000,-0.121980,
2025-10-15T08:26:10.293318+00:00,6.055000,-0.117800,
2025-10-15T08:26:10.298318+00:00,6.060000,-0.111720,
2025-10-15T08:26:10.303318+00:00,6.065000,-0.099180,
2025-10-15T08:26:10.308318+00:00,6.070000,-0.088160,
2025-10-15T08:26:10.313318+00:00,6.075000,-0.078660,
2025-10-15T08:26:10.318318+00:00,6.080000,-0.073340,
2025-10-15T08:26:10.323318+00:00,6.085000,-0.067260,
2025-10-15T08:26:10.328318+00:00,6.090000,-0.058900,
2025-10-15T08:26:10.333318+00:00,6.095000,-0.050160,
2025-10-15T08:26:10.338318+00:00,6.100000,-0.046360,
2025-10-15T08:26:10.343318+00:00,6.105000,-0.044080,
2025-10-15T08:26:10.348318+00:00,6.110000,-0.040660,
2025-10-15T08:26:10.353318+00:00,6.115000,-0.036100,
2025-10-15T08:26:10.358318+00:00,6.120000,-0.033820,
2025-10-15T08:26:10.363318+00:00,6.125000,-0.032300,
2025-10-15T08:26:10.368318+00:00,6.130000,-0.031540,
2025-10-15T08:26:10.373318+00:00,6.135000,-0.029260,
2025-10-15T08:26:10.378318+00:00,6.140000,-0.027360,
2025-10-15T08:26:10.383318+00:00,6.145000,-0.025460,
2025-10-15T08:26:10.388318+00:00,6.150000,-0.025080,
2025-10-15T08:26:10.393318+00:00,6.155000,-0.023940,
2025-10-15T08:26:10.398318+00:00,6.160000,-0.025460,
2025-10-15T08:26:10.403318+00:00,6.165000,-0.026600,
2025-10-15T08:26:10.408318+00:00,6.170000,-0.027740,
2025-10-15T08:26:10.413318+00:00,6.175000,-0.027360,
2025-10-15T08:26:10.418318+00:00,6.180000,-0.026600,
2025-10-15T08:26:10.423318+00:00,6.185000,-0.026220,
2025-10-15T08:26:10.428318+00:00,6.190000,-0.028120,
2025-10-15T08:26:10.433318+00:00,6.195000,-0.031160,
2025-10-15T08:26:10.438318+00:00,6.200000,-0.035720,
2025-10-15T08:26:10.443318+00:00,6.205000,-0.036860,
2025-10-15T08:26:10.448318+00:00,6.210000,-0.033440,
2025-10-15T08:26:10.453318+00:00,6.215000,-0.029640,
2025-10-15T08:26:10.458318+00:00,6.220000,-0.030780,
2025-10-15T08:26:10.463318+00:00,6.225000,-0.036480,
2025-10-15T08:26:10.468318+00:00,6.230000,-0.042560,
2025-10-15T08:26:10.473318+00:00,6.235000,-0.042180,
2025-10-15T08:26:10.478318+00:00,6.240000,-0.038760,
2025-10-15T08:26:10.483318+00:00,6.245000,-0.033820,
2025-10-15T08:26:10.488318+00:00,6.250000,-0.034200,
2025-10-15T08:26:10.493318+00:00,6.255000,-0.036480,
2025-10-15T08:26:10.498318+00:00,6.260000,-0.038760,
2025-10-15T08:26:10.503318+00:00,6.265000,-0.039140,
2025-10-15T08:26:10.508318+00:00,6.270000,-0.038760,
2025-10-15T08:26:10.513318+00:00,6.275000,-0.037620,
2025-10-15T08:26:10.518318+00:00,6.280000,-0.038380,
2025-10-15T08:26:10.523318+00:00,6.285000,-0.037620,
2025-10-15T08:26:10.528318+00:00,6.290000,-0.036860,
2025-10-15T08:26:10.533318+00:00,6.295000,-0.036480,
2025-10-15T08:26:10.538318+00:00,6.300000,-0.036480,
2025-10-15T08:26:10.543318+00:00,6.305000,-0.036100,
2025-10-15T08:26:10.548318+00:00,6.310000,-0.034960,
2025-10-15T08:26:10.553318+00:00,6.315000,-0.030780,
2025-10-15T08:26:10.558318+00:00,6.320000,-0.028500,
2025-10-15T08:26:10.563318+00:00,6.325000,-0.028500,
2025-10-15T08:26:10.568318+00:00,6.330000,-0.033440,
2025-10-15T08:26:10.573318+00:00,6.335000,-0.038380,
2025-10-15T08:26:10.578318+00:00,6.340000,-0.039900,
2025-10-15T08:26:10.583318+00:00,6.345000,-0.038760,
2025-10-15T08:26:10.588318+00:00,6.350000,-0.036100,
2025-10-15T08:26:10.593318+00:00,6.355000,-0.034580,
2025-10-15T08:26:10.598318+00:00,6.360000,-0.034200,
2025-10-15T08:26:10.603318+00:00,6.365000,-0.031540,
2025-10-15T08:26:10.608318+00:00,6.370000,-0.027360,
2025-10-15T08:26:10.613318+00:00,6.375000,-0.025460,
2025-10-15T08:26:10.618318+00:00,6.380000,-0.026600,
2025-10-15T08:26:10.623318+00:00,6.385000,-0.031920,
2025-10-15T08:26:10.628318+00:00,6.390000,-0.035720,
2025-10-15T08:26:10.633318+00:00,6.395000,-0.038760,
2025-10-15T08:26:10.638318+00:00,6.400000,-0.035720,
2025-10-15T08:26:10.643318+00:00,6.405000,-0.031920,
2025-10-15T08:26:10.648318+00:00,6.410000,-0.029640,
2025-10-15T08:26:10.653318+00:00,6.415000,-0.029260,
2025-10-15T08:26:10.658318+00:00,6.420000,-0.030400,
2025-10-15T08:26:10.663318+00:00,6.425000,-0.032680,
2025-10-15T08:26:10.668318+00:00,6.430000,-0.033820,
2025-10-15T08:26:10.673318+00:00,6.435000,-0.033060,
2025-10-15T08:26:10.678318+00:00,6.440000,-0.031160,
2025-10-15T08:26:10.683318+00:00,6.445000,-0.030400,
2025-10-15T08:26:10.688318+00:00,6.450000,-0.030020,
2025-10-15T08:26:10.693318+00:00,6.455000,-0.031540,
2025-10-15T08:26:10.698318+00:00,6.460000,-0.033060,
2025-10-15T08:26:10.703318+00:00,6.465000,-0.035720,
2025-10-15T08:26:10.708318+00:00,6.470000,-0.038000,
2025-10-15T08:26:10.713318+00:00,6.475000,-0.036100,
2025-10-15T08:26:10.718318+00:00,6.480000,-0.031920,
2025-10-15T08:26:10.723318+00:00,6.485000,-0.029640,
2025-10-15T08:26:10.728318+00:00,6.490000,-0.031160,
2025-10-15T08:26:10.733318+00:00,6.495000,-0.034580,
2025-10-15T08:26:10.738318+00:00,6.500000,-0.035340,
2025-10-15T08:26:10.743318+00:00,6.505000,-0.033820,
2025-10-15T08:26:10.748318+00:00,6.510000,-0.033440,
2025-10-15T08:26:10.753318+00:00,6.515000,-0.034200,
2025-10-15T08:26:10.758318+00:00,6.520000,-0.035720,
2025-10-15T08:26:10.763318+00:00,6.525000,-0.034960,
2025-10-15T08:26:10.768318+00:00,6.530000,-0.033060,
2025-10-15T08:26:10.773318+00:00,6.535000,-0.031920,
2025-10-15T08:26:10.778318+00:00,6.540000,-0.033060,
2025-10-15T08:26:10.783318+00:00,6.545000,-0.032300,
2025-10-15T08:26:10.788318+00:00,6.550000,-0.030780,
2025-10-15T08:26:10.793318+00:00,6.555000,-0.029640,
2025-10-15T08:26:10.798318+00:00,6.560000,-0.028500,
2025-10-15T08:26:10.803318+00:00,6.565000,-0.025080,
2025-10-15T08:26:10.808318+00:00,6.570000,-0.017480,
2025-10-15T08:26:10.813318+00:00,6.575000,-0.006460,
2025-10-15T08:26:10.818318+00:00,6.580000,-0.001520,
2025-10-15T08:26:10.823318+00:00,6.585000,-0.003420,
2025-10-15T08:26:10.828318+00:00,6.590000,-0.015960,
2025-10-15T08:26:10.833318+00:00,6.595000,-0.028880,
2025-10-15T08:26:10.838318+00:00,6.600000,-0.037240,
2025-10-15T08:26:10.843318+00:00,6.605000,-0.040280,
2025-10-15T08:26:10.848318+00:00,6.610000,-0.041420,
2025-10-15T08:26:10.853318+00:00,6.615000,-0.044840,
2025-10-15T08:26:10.858318+00:00,6.620000,-0.047120,
2025-10-15T08:26:10.863318+00:00,6.625000,-0.047500,
2025-10-15T08:26:10.868318+00:00,6.630000,-0.046740,
2025-10-15T08:26:10.873318+00:00,6.635000,-0.045220,
2025-10-15T08:26:10.878318+00:00,6.640000,-0.044460,
2025-10-15T08:26:10.883318+00:00,6.645000,-0.041800,
2025-10-15T08:26:10.888318+00:00,6.650000,-0.038380,
2025-10-15T08:26:10.893318+00:00,6.655000,-0.036860,
2025-10-15T08:26:10.898318+00:00,6.660000,-0.035720,
2025-10-15T08:26:10.903318+00:00,6.665000,-0.034200,
2025-10-15T08:26:10.908318+00:00,6.670000,-0.037240,
2025-10-15T08:26:10.913318+00:00,6.675000,-0.046360,
2025-10-15T08:26:10.918318+00:00,6.680000,-0.039520,
2025-10-15T08:26:10.923318+00:00,6.685000,0.006080,
2025-10-15T08:26:10.928318+00:00,6.690000,0.077520,
2025-10-15T08:26:10.933318+00:00,6.695000,0.134900,
2025-10-15T08:26:10.938318+00:00,6.700000,0.157700,
2025-10-15T08:26:10.943318+00:00,6.705000,0.181640,
2025-10-15T08:26:10.948318+00:00,6.710000,0.234080,
2025-10-15T08:26:10.953318+00:00,6.715000,0.262960,
2025-10-15T08:26:10.958318+00:00,6.720000,0.170620,
2025-10-15T08:26:10.963318+00:00,6.725000,-0.056240,
2025-10-15T08:26:10.968318+00:00,6.730000,-0.298300,
2025-10-15T08:26:10.973318+00:00,6.735000,-0.409260,
2025-10-15T08:26:10.978318+00:00,6.740000,-0.365560,
2025-10-15T08:26:10.983318+00:00,6.745000,-0.258020,
2025-10-15T08:26:10.988318+00:00,6.750000,-0.178600,
2025-10-15T08:26:10.993318+00:00,6.755000,-0.136800,
2025-10-15T08:26:10.998318+00:00,6.760000,-0.100320,
2025-10-15T08:26:11.003318+00:00,6.765000,-0.057760,
2025-10-15T08:26:11.008318+00:00,6.770000,-0.026220,
2025-10-15T08:26:11.013318+00:00,6.775000,-0.013680,
2025-10-15T08:26:11.018318+00:00,6.780000,-0.012920,
2025-10-15T08:26:11.023318+00:00,6.785000,-0.015200,
2025-10-15T08:26:11.028318+00:00,6.790000,-0.016720,
2025-10-15T08:26:11.033318+00:00,6.795000,-0.017480,
2025-10-15T08:26:11.038318+00:00,6.800000,-0.017100,
2025-10-15T08:26:11.043318+00:00,6.805000,-0.014440,
2025-10-15T08:26:11.048318+00:00,6.810000,-0.013300,
2025-10-15T08:26:11.053318+00:00,6.815000,-0.012920,
2025-10-15T08:26:11.058318+00:00,6.820000,-0.012920,
2025-10-15T08:26:11.063318+00:00,6.825000,-0.014440,
2025-10-15T08:26:11.068318+00:00,6.830000,-0.015200,
2025-10-15T08:26:11.073318+00:00,6.835000,-0.015200,
2025-10-15T08:26:11.078318+00:00,6.840000,-0.012540,
2025-10-15T08:26:11.083318+00:00,6.845000,-0.008740,
2025-10-15T08:26:11.088318+00:00,6.850000,-0.006460,
2025-10-15T08:26:11.093318+00:00,6.855000,-0.006460,
2025-10-15T08:26:11.098318+00:00,6.860000,-0.008360,
2025-10-15T08:26:11.103318+00:00,6.865000,-0.009500,
2025-10-15T08:26:11.108318+00:00,6.870000,-0.007600,
2025-10-15T08:26:11.113318+00:00,6.875000,-0.006460,
2025-10-15T08:26:11.118318+00:00,6.880000,-0.004940,
2025-10-15T08:26:11.123318+00:00,6.885000,-0.003800,
2025-10-15T08:26:11.128318+00:00,6.890000,0.001520,
2025-10-15T08:26:11.133318+00:00,6.895000,0.006840,
2025-10-15T08:26:11.138318+00:00,6.900000,0.009120,
2025-10-15T08:26:11.143318+00:00,6.905000,0.007600,
2025-10-15T08:26:11.148318+00:00,6.910000,0.004180,
2025-10-15T08:26:11.153318+00:00,6.915000,0.004180,
2025-10-15T08:26:11.158318+00:00,6.920000,0.008360,
2025-10-15T08:26:11.163318+00:00,6.925000,0.011020,
2025-10-15T08:26:11.168318+00:00,6.930000,0.009880,
2025-10-15T08:26:11.173318+00:00,6.935000,0.000760,
2025-10-15T08:26:11.178318+00:00,6.940000,-0.009120,
2025-10-15T08:26:11.183318+00:00,6.945000,-0.017860,
2025-10-15T08:26:11.188318+00:00,6.950000,-0.021280,
2025-10-15T08:26:11.193318+00:00,6.955000,-0.026220,
2025-10-15T08:26:11.198318+00:00,6.960000,-0.031920,
2025-10-15T08:26:11.203318+00:00,6.965000,-0.040660,
2025-10-15T08:26:11.208318+00:00,6.970000,-0.052440,
2025-10-15T08:26:11.213318+00:00,6.975000,-0.064600,
2025-10-15T08:26:11.218318+00:00,6.980000,-0.079800,
2025-10-15T08:26:11.223318+00:00,6.985000,-0.094620,
2025-10-15T08:26:11.228318+00:00,6.990000,-0.107920,
2025-10-15T08:26:11.233318+00:00,6.995000,-0.118560,
2025-10-15T08:26:11.238318+00:00,7.000000,-0.127300,
2025-10-15T08:26:11.243318+00:00,7.005000,-0.130720,
2025-10-15T08:26:11.248318+00:00,7.010000,-0.131100,
2025-10-15T08:26:11.253318+00:00,7.015000,-0.127680,
2025-10-15T08:26:11.258318+00:00,7.020000,-0.121600,
2025-10-15T08:26:11.263318+00:00,7.025000,-0.113240,
2025-10-15T08:26:11.268318+00:00,7.030000,-0.103360,
2025-10-15T08:26:11.273318+00:00,7.035000,-0.096520,
2025-10-15T08:26:11.278318+00:00,7.040000,-0.091200,
2025-10-15T08:26:11.283318+00:00,7.045000,-0.084740,
2025-10-15T08:26:11.288318+00:00,7.050000,-0.075240,
2025-10-15T08:26:11.293318+00:00,7.055000,-0.060800,
2025-10-15T08:26:11.298318+00:00,7.060000,-0.050540,
2025-10-15T08:26:11.303318+00:00,7.065000,-0.046740,
2025-10-15T08:26:11.308318+00:00,7.070000,-0.047880,
2025-10-15T08:26:11.313318+00:00,7.075000,-0.048260,
2025-10-15T08:26:11.318318+00:00,7.080000,-0.044460,
2025-10-15T08:26:11.323318+00:00,7.085000,-0.038000,
2025-10-15T08:26:11.328318+00:00,7.090000,-0.033440,
2025-10-15T08:26:11.333318+00:00,7.095000,-0.033440,
2025-10-15T08:26:11.338318+00:00,7.100000,-0.033060,
2025-10-15T08:26:11.343318+00:00,7.105000,-0.030780,
2025-10-15T08:26:11.348318+00:00,7.110000,-0.029260,
2025-10-15T08:26:11.353318+00:00,7.115000,-0.030020,
2025-10-15T08:26:11.358318+00:00,7.120000,-0.032300,
2025-10-15T08:26:11.363318+00:00,7.125000,-0.031160,
2025-10-15T08:26:11.368318+00:00,7.130000,-0.028880,
2025-10-15T08:26:11.373318+00:00,7.135000,-0.025080,
2025-10-15T08:26:11.378318+00:00,7.140000,-0.022420,
2025-10-15T08:26:11.383318+00:00,7.145000,-0.023180,
2025-10-15T08:26:11.388318+00:00,7.150000,-0.028120,
2025-10-15T08:26:11.393318+00:00,7.155000,-0.033440,
2025-10-15T08:26:11.398318+00:00,7.160000,-0.036100,
2025-10-15T08:26:11.403318+00:00,7.165000,-0.034580,
2025-10-15T08:26:11.408318+00:00,7.170000,-0.031920,
2025-10-15T08:26:11.413318+00:00,7.175000,-0.030020,
2025-10-15T08:26:11.418318+00:00,7.180000,-0.028500,
2025-10-15T08:26:11.423318+00:00,7.185000,-0.030020,
2025-10-15T08:26:11.428318+00:00,7.190000,-0.034200,
2025-10-15T08:26:11.433318+00:00,7.195000,-0.039520,
2025-10-15T08:26:11.438318+00:00,7.200000,-0.042180,
2025-10-15T08:26:11.443318+00:00,7.205000,-0.041420,
2025-10-15T08:26:11.448318+00:00,7.210000,-0.038000,
2025-10-15T08:26:11.453318+00:00,7.215000,-0.033060,
2025-10-15T08:26:11.458318+00:00,7.220000,-0.030400,
2025-10-15T08:26:11.463318+00:00,7.225000,-0.031540,
2025-10-15T08:26:11.468318+00:00,7.230000,-0.037620,
2025-10-15T08:26:11.473318+00:00,7.235000,-0.045220,
2025-10-15T08:26:11.478318+00:00,7.240000,-0.045600,
2025-10-15T08:26:11.483318+00:00,7.245000,-0.041420,
2025-10-15T08:26:11.488318+00:00,7.250000,-0.037620,
2025-10-15T08:26:11.493318+00:00,7.255000,-0.037240,
2025-10-15T08:26:11.498318+00:00,7.260000,-0.039520,
2025-10-15T08:26:11.503318+00:00,7.265000,-0.036860,
2025-10-15T08:26:11.508318+00:00,7.270000,-0.030780,
2025-10-15T08:26:11.513318+00:00,7.275000,-0.026600,
2025-10-15T08:26:11.518318+00:00,7.280000,-0.027740,
2025-10-15T08:26:11.523318+00:00,7.285000,-0.031540,
2025-10-15T08:26:11.528318+00:00,7.290000,-0.035340,
2025-10-15T08:26:11.533318+00:00,7.295000,-0.034580,
2025-10-15T08:26:11.538318+00:00,7.300000,-0.034580,
2025-10-15T08:26:11.543318+00:00,7.305000,-0.035340,
2025-10-15T08:26:11.548318+00:00,7.310000,-0.036480,
2025-10-15T08:26:11.553318+00:00,7.315000,-0.035720,
2025-10-15T08:26:11.558318+00:00,7.320000,-0.035340,
2025-10-15T08:26:11.563318+00:00,7.325000,-0.036480,
2025-10-15T08:26:11.568318+00:00,7.330000,-0.036860,
2025-10-15T08:26:11.573318+00:00,7.335000,-0.034580,
2025-10-15T08:26:11.578318+00:00,7.340000,-0.031160,
2025-10-15T08:26:11.583318+00:00,7.345000,-0.030400,
2025-10-15T08:26:11.588318+00:00,7.350000,-0.033060,
2025-10-15T08:26:11.593318+00:00,7.355000,-0.035340,
2025-10-15T08:26:11.598318+00:00,7.360000,-0.034200,
2025-10-15T08:26:11.603318+00:00,7.365000,-0.031540,
2025-10-15T08:26:11.608318+00:00,7.370000,-0.029640,
2025-10-15T08:26:11.613318+00:00,7.375000,-0.031920,
2025-10-15T08:26:11.618318+00:00,7.380000,-0.035720,
2025-10-15T08:26:11.623318+00:00,7.385000,-0.037240,
2025-10-15T08:26:11.628318+00:00,7.390000,-0.035720,
2025-10-15T08:26:11.633318+00:00,7.395000,-0.034200,
2025-10-15T08:26:11.638318+00:00,7.400000,-0.034200,
2025-10-15T08:26:11.643318+00:00,7.405000,-0.034580,
2025-10-15T08:26:11.648318+00:00,7.410000,-0.032300,
2025-10-15T08:26:11.653318+00:00,7.415000,-0.029640,
2025-10-15T08:26:11.658318+00:00,7.420000,-0.028880,
2025-10-15T08:26:11.663318+00:00,7.425000,-0.028880,
2025-10-15T08:26:11.668318+00:00,7.430000,-0.030400,
2025-10-15T08:26:11.673318+00:00,7.435000,-0.031160,
2025-10-15T08:26:11.678318+00:00,7.440000,-0.033060,
2025-10-15T08:26:11.683318+00:00,7.445000,-0.034960,
2025-10-15T08:26:11.688318+00:00,7.450000,-0.034580,
2025-10-15T08:26:11.693318+00:00,7.455000,-0.033440,
2025-10-15T08:26:11.698318+00:00,7.460000,-0.034200,
2025-10-15T08:26:11.703318+00:00,7.465000,-0.034200,
2025-10-15T08:26:11.708318+00:00,7.470000,-0.032300,
2025-10-15T08:26:11.713318+00:00,7.475000,-0.030020,
2025-10-15T08:26:11.718318+00:00,7.480000,-0.029640,
2025-10-15T08:26:11.723318+00:00,7.485000,-0.033060,
2025-10-15T08:26:11.728318+00:00,7.490000,-0.034960,
2025-10-15T08:26:11.733318+00:00,7.495000,-0.033440,
2025-10-15T08:26:11.738318+00:00,7.500000,-0.029260,
2025-10-15T08:26:11.743318+00:00,7.505000,-0.026980,
2025-10-15T08:26:11.748318+00:00,7.510000,-0.026220,
2025-10-15T08:26:11.753318+00:00,7.515000,-0.029640,
2025-10-15T08:26:11.758318+00:00,7.520000,-0.033820,
2025-10-15T08:26:11.763318+00:00,7.525000,-0.036480,
2025-10-15T08:26:11.768318+00:00,7.530000,-0.036100,
2025-10-15T08:26:11.773318+00:00,7.535000,-0.034580,
2025-10-15T08:26:11.778318+00:00,7.540000,-0.033060,
2025-10-15T08:26:11.783318+00:00,7.545000,-0.031920,
2025-10-15T08:26:11.788318+00:00,7.550000,-0.029640,
2025-10-15T08:26:11.793318+00:00,7.555000,-0.026980,
2025-10-15T08:26:11.798318+00:00,7.560000,-0.025080,
2025-10-15T08:26:11.803318+00:00,7.565000,-0.027740,
2025-10-15T08:26:11.808318+00:00,7.570000,-0.034960,
2025-10-15T08:26:11.813318+00:00,7.575000,-0.040660,
2025-10-15T08:26:11.818318+00:00,7.580000,-0.041420,
2025-10-15T08:26:11.823318+00:00,7.585000,-0.033060,
2025-10-15T08:26:11.828318+00:00,7.590000,-0.022420,
2025-10-15T08:26:11.833318+00:00,7.595000,-0.015200,
2025-10-15T08:26:11.838318+00:00,7.600000,-0.010260,
2025-10-15T08:26:11.843318+00:00,7.605000,-0.005320,
2025-10-15T08:26:11.848318+00:00,7.610000,-0.001900,
2025-10-15T08:26:11.853318+00:00,7.615000,-0.006460,
2025-10-15T08:26:11.858318+00:00,7.620000,-0.017860,
2025-10-15T08:26:11.863318+00:00,7.625000,-0.031540,
2025-10-15T08:26:11.868318+00:00,7.630000,-0.040660,
2025-10-15T08:26:11.873318+00:00,7.635000,-0.044840,
2025-10-15T08:26:11.878318+00:00,7.640000,-0.046360,
2025-10-15T08:26:11.883318+00:00,7.645000,-0.046740,
2025-10-15T08:26:11.888318+00:00,7.650000,-0.047500,
2025-10-15T08:26:11.893318+00:00,7.655000,-0.048260,
2025-10-15T08:26:11.898318+00:00,7.660000,-0.045980,
2025-10-15T08:26:11.903318+00:00,7.665000,-0.042940,
2025-10-15T08:26:11.908318+00:00,7.670000,-0.042180,
2025-10-15T08:26:11.913318+00:00,7.675000,-0.042940,
2025-10-15T08:26:11.918318+00:00,7.680000,-0.044840,
2025-10-15T08:26:11.923318+00:00,7.685000,-0.041800,
2025-10-15T08:26:11.928318+00:00,7.690000,-0.034580,
2025-10-15T08:26:11.933318+00:00,7.695000,-0.033820,
2025-10-15T08:26:11.938318+00:00,7.700000,-0.041040,
2025-10-15T08:26:11.943318+00:00,7.705000,-0.028120,
2025-10-15T08:26:11.948318+00:00,7.710000,0.028120,
2025-10-15T08:26:11.953318+00:00,7.715000,0.106780,
2025-10-15T08:26:11.958318+00:00,7.720000,0.164540,
2025-10-15T08:26:11.963318+00:00,7.725000,0.196840,
2025-10-15T08:26:11.968318+00:00,7.730000,0.234080,
2025-10-15T08:26:11.973318+00:00,7.735000,0.278160,
2025-10-15T08:26:11.978318+00:00,7.740000,0.251940,
2025-10-15T08:26:11.983318+00:00,7.745000,0.082840,
2025-10-15T08:26:11.988318+00:00,7.750000,-0.186580,
2025-10-15T08:26:11.993318+00:00,7.755000,-0.407360,
2025-10-15T08:26:11.998318+00:00,7.760000,-0.465500,
2025-10-15T08:26:12.003318+00:00,7.765000,-0.376200,
2025-10-15T08:26:12.008318+00:00,7.770000,-0.245100,
2025-10-15T08:26:12.013318+00:00,7.775000,-0.152000,
2025-10-15T08:26:12.018318+00:00,7.780000,-0.104120,
2025-10-15T08:26:12.023318+00:00,7.785000,-0.070300,
2025-10-15T08:26:12.028318+00:00,7.790000,-0.039900,
2025-10-15T08:26:12.033318+00:00,7.795000,-0.020140,
2025-10-15T08:26:12.038318+00:00,7.800000,-0.011020,
2025-10-15T08:26:12.043318+00:00,7.805000,-0.007220,
2025-10-15T08:26:12.048318+00:00,7.810000,-0.007600,
2025-10-15T08:26:12.053318+00:00,7.815000,-0.008740,
2025-10-15T08:26:12.058318+00:00,7.820000,-0.009880,
2025-10-15T08:26:12.063318+00:00,7.825000,-0.010260,
2025-10-15T08:26:12.068318+00:00,7.830000,-0.011780,
2025-10-15T08:26:12.073318+00:00,7.835000,-0.012920,
2025-10-15T08:26:12.078318+00:00,7.840000,-0.012920,
2025-10-15T08:26:12.083318+00:00,7.845000,-0.009120,
2025-10-15T08:26:12.088318+00:00,7.850000,-0.006840,
2025-10-15T08:26:12.093318+00:00,7.855000,-0.008740,
2025-10-15T08:26:12.098318+00:00,7.860000,-0.012540,
2025-10-15T08:26:12.103318+00:00,7.865000,-0.012540,
2025-10-15T08:26:12.108318+00:00,7.870000,-0.012160,
2025-10-15T08:26:12.113318+00:00,7.875000,-0.009120,
2025-10-15T08:26:12.118318+00:00,7.880000,-0.007220,
2025-10-15T08:26:12.123318+00:00,7.885000,-0.006460,
2025-10-15T08:26:12.128318+00:00,7.890000,-0.007220,
2025-10-15T08:26:12.133318+00:00,7.895000,-0.007600,
2025-10-15T08:26:12.138318+00:00,7.900000,-0.005320,
2025-10-15T08:26:12.143318+00:00,7.905000,-0.000760,
2025-10-15T08:26:12.148318+00:00,7.910000,0.002280,
2025-10-15T08:26:12.153318+00:00,7.915000,0.003040,
2025-10-15T08:26:12.158318+00:00,7.920000,0.003420,
2025-10-15T08:26:12.163318+00:00,7.925000,0.004940,
2025-10-15T08:26:12.168318+00:00,7.930000,0.006080,
2025-10-15T08:26:12.173318+00:00,7.935000,0.005700,
2025-10-15T08:26:12.178318+00:00,7.940000,0.007220,
2025-10-15T08:26:12.183318+00:00,7.945000,0.008740,
2025-10-15T08:26:12.188318+00:00,7.950000,0.008360,
2025-10-15T08:26:12.193318+00:00,7.955000,0.002660,
2025-10-15T08:26:12.198318+00:00,7.960000,-0.004180,
2025-10-15T08:26:12.203318+00:00,7.965000,-0.010260,
2025-10-15T08:26:12.208318+00:00,7.970000,-0.014820,
2025-10-15T08:26:12.213318+00:00,7.975000,-0.022800,
2025-10-15T08:26:12.218318+00:00,7.980000,-0.032680,
2025-10-15T08:26:12.223318+00:00,7.985000,-0.042180,
2025-10-15T08:26:12.228318+00:00,7.990000,-0.050160,
2025-10-15T08:26:12.233318+00:00,7.995000,-0.057000,
2025-10-15T08:26:12.238318+00:00,8.000000,-0.069160,
2025-10-15T08:26:12.243318+00:00,8.005000,-0.084740,
2025-10-15T08:26:12.248318+00:00,8.010000,-0.100320,
2025-10-15T08:26:12.253318+00:00,8.015000,-0.113620,
2025-10-15T08:26:12.258318+00:00,8.020000,-0.123880,
2025-10-15T08:26:12.263318+00:00,8.025000,-0.129960,
2025-10-15T08:26:12.268318+00:00,8.030000,-0.135660,
2025-10-15T08:26:12.273318+00:00,8.035000,-0.136040,
2025-10-15T08:26:12.278318+00:00,8.040000,-0.131100,
2025-10-15T08:26:12.283318+00:00,8.045000,-0.123500,
2025-10-15T08:26:12.288318+00:00,8.050000,-0.116660,
2025-10-15T08:26:12.293318+00:00,8.055000,-0.109440,
2025-10-15T08:26:12.298318+00:00,8.060000,-0.100700,
2025-10-15T08:26:12.303318+00:00,8.065000,-0.090440,
2025-10-15T08:26:12.308318+00:00,8.070000,-0.079800,
2025-10-15T08:26:12.313318+00:00,8.075000,-0.073340,
2025-10-15T08:26:12.318318+00:00,8.080000,-0.066500,
2025-10-15T08:26:12.323318+00:00,8.085000,-0.060040,
2025-10-15T08:26:12.328318+00:00,8.090000,-0.052820,
2025-10-15T08:26:12.333318+00:00,8.095000,-0.046360,
2025-10-15T08:26:12.338318+00:00,8.100000,-0.041420,
2025-10-15T08:26:12.343318+00:00,8.105000,-0.038000,
2025-10-15T08:26:12.348318+00:00,8.110000,-0.034200,
2025-10-15T08:26:12.353318+00:00,8.115000,-0.030400,
2025-10-15T08:26:12.358318+00:00,8.120000,-0.028120,
2025-10-15T08:26:12.363318+00:00,8.125000,-0.027740,
2025-10-15T08:26:12.368318+00:00,8.130000,-0.027360,
2025-10-15T08:26:12.373318+00:00,8.135000,-0.026600,
2025-10-15T08:26:12.378318+00:00,8.140000,-0.027740,
2025-10-15T08:26:12.383318+00:00,8.145000,-0.028880,
2025-10-15T08:26:12.388318+00:00,8.150000,-0.029260,
2025-10-15T08:26:12.393318+00:00,8.155000,-0.026980,
2025-10-15T08:26:12.398318+00:00,8.160000,-0.025840,
2025-10-15T08:26:12.403318+00:00,8.165000,-0.027360,
2025-10-15T08:26:12.408318+00:00,8.170000,-0.030020,
2025-10-15T08:26:12.413318+00:00,8.175000,-0.030400,
2025-10-15T08:26:12.418318+00:00,8.180000,-0.029260,
2025-10-15T08:26:12.423318+00:00,8.185000,-0.026600,
2025-10-15T08:26:12.428318+00:00,8.190000,-0.028120,
2025-10-15T08:26:12.433318+00:00,8.195000,-0.029640,
2025-10-15T08:26:12.438318+00:00,8.200000,-0.031540,
2025-10-15T08:26:12.443318+00:00,8.205000,-0.032680,
2025-10-15T08:26:12.448318+00:00,8.210000,-0.035720,
2025-10-15T08:26:12.453318+00:00,8.215000,-0.038760,
2025-10-15T08:26:12.458318+00:00,8.220000,-0.039140,
2025-10-15T08:26:12.463318+00:00,8.225000,-0.035340,
2025-10-15T08:26:12.468318+00:00,8.230000,-0.033060,
2025-10-15T08:26:12.473318+00:00,8.235000,-0.033060,
2025-10-15T08:26:12.478318+00:00,8.240000,-0.037240,
2025-10-15T08:26:12.483318+00:00,8.245000,-0.039140,
2025-10-15T08:26:12.488318+00:00,8.250000,-0.037240,
2025-10-15T08:26:12.493318+00:00,8.255000,-0.034200,
2025-10-15T08:26:12.498318+00:00,8.260000,-0.033440,
2025-10-15T08:26:12.503318+00:00,8.265000,-0.033820,
2025-10-15T08:26:12.508318+00:00,8.270000,-0.032680,
2025-10-15T08:26:12.513318+00:00,8.275000,-0.030780,
2025-10-15T08:26:12.518318+00:00,8.280000,-0.030020,
2025-10-15T08:26:12.523318+00:00,8.285000,-0.033060,
2025-10-15T08:26:12.528318+00:00,8.290000,-0.036480,
2025-10-15T08:26:12.533318+00:00,8.295000,-0.037240,
2025-10-15T08:26:12.538318+00:00,8.300000,-0.035720,
2025-10-15T08:26:12.543318+00:00,8.305000,-0.032680,
2025-10-15T08:26:12.548318+00:00,8.310000,-0.030780,
2025-10-15T08:26:12.553318+00:00,8.315000,-0.031160,
2025-10-15T08:26:12.558318+00:00,8.320000,-0.032680,
2025-10-15T08:26:12.563318+00:00,8.325000,-0.033440,
2025-10-15T08:26:12.568318+00:00,8.330000,-0.033440,
2025-10-15T08:26:12.573318+00:00,8.335000,-0.033440,
2025-10-15T08:26:12.578318+00:00,8.340000,-0.033060,
2025-10-15T08:26:12.583318+00:00,8.345000,-0.033820,
2025-10-15T08:26:12.588318+00:00,8.350000,-0.034960,
2025-10-15T08:26:12.593318+00:00,8.355000,-0.035720,
2025-10-15T08:26:12.598318+00:00,8.360000,-0.034200,
2025-10-15T08:26:12.603318+00:00,8.365000,-0.031160,
2025-10-15T08:26:12.608318+00:00,8.370000,-0.029640,
2025-10-15T08:26:12.613318+00:00,8.375000,-0.030780,
2025-10-15T08:26:12.618318+00:00,8.380000,-0.032680,
2025-10-15T08:26:12.623318+00:00,8.385000,-0.032300,
2025-10-15T08:26:12.628318+00:00,8.390000,-0.032680,
2025-10-15T08:26:12.633318+00:00,8.395000,-0.030780,
2025-10-15T08:26:12.638318+00:00,8.400000,-0.029640,
2025-10-15T08:26:12.643318+00:00,8.405000,-0.027360,
2025-10-15T08:26:12.648318+00:00,8.410000,-0.026980,
2025-10-15T08:26:12.653318+00:00,8.415000,-0.027740,
2025-10-15T08:26:12.658318+00:00,8.420000,-0.028120,
2025-10-15T08:26:12.663318+00:00,8.425000,-0.027360,
2025-10-15T08:26:12.668318+00:00,8.430000,-0.026980,
2025-10-15T08:26:12.673318+00:00,8.435000,-0.029640,
2025-10-15T08:26:12.678318+00:00,8.440000,-0.031160,
2025-10-15T08:26:12.683318+00:00,8.445000,-0.032300,
2025-10-15T08:26:12.688318+00:00,8.450000,-0.031540,
2025-10-15T08:26:12.693318+00:00,8.455000,-0.030780,
2025-10-15T08:26:12.698318+00:00,8.460000,-0.032680,
2025-10-15T08:26:12.703318+00:00,8.465000,-0.033060,
2025-10-15T08:26:12.708318+00:00,8.470000,-0.031540,
2025-10-15T08:26:12.713318+00:00,8.475000,-0.028500,
2025-10-15T08:26:12.718318+00:00,8.480000,-0.025080,
2025-10-15T08:26:12.723318+00:00,8.485000,-0.025460,
2025-10-15T08:26:12.728318+00:00,8.490000,-0.029640,
2025-10-15T08:26:12.733318+00:00,8.495000,-0.031540,
2025-10-15T08:26:12.738318+00:00,8.500000,-0.030020,
2025-10-15T08:26:12.743318+00:00,8.505000,-0.026600,
2025-10-15T08:26:12.748318+00:00,8.510000,-0.026220,
2025-10-15T08:26:12.753318+00:00,8.515000,-0.029640,
2025-10-15T08:26:12.758318+00:00,8.520000,-0.032300,
2025-10-15T08:26:12.763318+00:00,8.525000,-0.032680,
2025-10-15T08:26:12.768318+00:00,8.530000,-0.031540,
2025-10-15T08:26:12.773318+00:00,8.535000,-0.030020,
2025-10-15T08:26:12.778318+00:00,8.540000,-0.029640,
2025-10-15T08:26:12.783318+00:00,8.545000,-0.030780,
2025-10-15T08:26:12.788318+00:00,8.550000,-0.032680,
2025-10-15T08:26:12.793318+00:00,8.555000,-0.034580,
2025-10-15T08:26:12.798318+00:00,8.560000,-0.032680,
2025-10-15T08:26:12.803318+00:00,8.565000,-0.029260,
2025-10-15T08:26:12.808318+00:00,8.570000,-0.026220,
2025-10-15T08:26:12.813318+00:00,8.575000,-0.026220,
2025-10-15T08:26:12.818318+00:00,8.580000,-0.028880,
2025-10-15T08:26:12.823318+00:00,8.585000,-0.032300,
2025-10-15T08:26:12.828318+00:00,8.590000,-0.033060,
2025-10-15T08:26:12.833318+00:00,8.595000,-0.030020,
2025-10-15T08:26:12.838318+00:00,8.600000,-0.025080,
2025-10-15T08:26:12.843318+00:00,8.605000,-0.021660,
2025-10-15T08:26:12.848318+00:00,8.610000,-0.022800,
2025-10-15T08:26:12.853318+00:00,8.615000,-0.026980,
2025-10-15T08:26:12.858318+00:00,8.620000,-0.028500,
2025-10-15T08:26:12.863318+00:00,8.625000,-0.019380,
2025-10-15T08:26:12.868318+00:00,8.630000,-0.004940,
2025-10-15T08:26:12.873318+00:00,8.635000,0.002660,
2025-10-15T08:26:12.878318+00:00,8.640000,-0.001140,
2025-10-15T08:26:12.883318+00:00,8.645000,-0.015580,
2025-10-15T08:26:12.888318+00:00,8.650000,-0.028880,
2025-10-15T08:26:12.893318+00:00,8.655000,-0.035340,
2025-10-15T08:26:12.898318+00:00,8.660000,-0.037240,
2025-10-15T08:26:12.903318+00:00,8.665000,-0.039900,
2025-10-15T08:26:12.908318+00:00,8.670000,-0.043700,
2025-10-15T08:26:12.913318+00:00,8.675000,-0.046360,
2025-10-15T08:26:12.918318+00:00,8.680000,-0.047120,
2025-10-15T08:26:12.923318+00:00,8.685000,-0.045600,
2025-10-15T08:26:12.928318+00:00,8.690000,-0.044840,
2025-10-15T08:26:12.933318+00:00,8.695000,-0.042560,
2025-10-15T08:26:12.938318+00:00,8.700000,-0.037620,
2025-10-15T08:26:12.943318+00:00,8.705000,-0.033440,
2025-10-15T08:26:12.948318+00:00,8.710000,-0.031160,
2025-10-15T08:26:12.953318+00:00,8.715000,-0.030780,
2025-10-15T08:26:12.958318+00:00,8.720000,-0.038000,
2025-10-15T08:26:12.963318+00:00,8.725000,-0.045980,
2025-10-15T08:26:12.968318+00:00,8.730000,-0.029260,
2025-10-15T08:26:12.973318+00:00,8.735000,0.027740,
2025-10-15T08:26:12.978318+00:00,8.740000,0.100320,
2025-10-15T08:26:12.983318+00:00,8.745000,0.146300,
2025-10-15T08:26:12.988318+00:00,8.750000,0.168340,
2025-10-15T08:26:12.993318+00:00,8.755000,0.207480,
2025-10-15T08:26:12.998318+00:00,8.760000,0.268660,
2025-10-15T08:26:13.003318+00:00,8.765000,0.273980,
2025-10-15T08:26:13.008318+00:00,8.770000,0.134520,
2025-10-15T08:26:13.013318+00:00,8.775000,-0.123120,
2025-10-15T08:26:13.018318+00:00,8.780000,-0.352640,
2025-10-15T08:26:13.023318+00:00,8.785000,-0.428260,
2025-10-15T08:26:13.028318+00:00,8.790000,-0.359100,
2025-10-15T08:26:13.033318+00:00,8.795000,-0.247000,
2025-10-15T08:26:13.038318+00:00,8.800000,-0.167580,
2025-10-15T08:26:13.043318+00:00,8.805000,-0.123880,
2025-10-15T08:26:13.048318+00:00,8.810000,-0.085120,
2025-10-15T08:26:13.053318+00:00,8.815000,-0.046360,
2025-10-15T08:26:13.058318+00:00,8.820000,-0.022800,
2025-10-15T08:26:13.063318+00:00,8.825000,-0.017860,
2025-10-15T08:26:13.068318+00:00,8.830000,-0.019000,
2025-10-15T08:26:13.073318+00:00,8.835000,-0.019760,
2025-10-15T08:26:13.078318+00:00,8.840000,-0.019760,
2025-10-15T08:26:13.083318+00:00,8.845000,-0.019760,
2025-10-15T08:26:13.088318+00:00,8.850000,-0.017480,
2025-10-15T08:26:13.093318+00:00,8.855000,-0.014440,
2025-10-15T08:26:13.098318+00:00,8.860000,-0.011400,
2025-10-15T08:26:13.103318+00:00,8.865000,-0.009880,
2025-10-15T08:26:13.108318+00:00,8.870000,-0.011020,
2025-10-15T08:26:13.113318+00:00,8.875000,-0.014440,
2025-10-15T08:26:13.118318+00:00,8.880000,-0.015200,
2025-10-15T08:26:13.123318+00:00,8.885000,-0.013680,
2025-10-15T08:26:13.128318+00:00,8.890000,-0.011020,
2025-10-15T08:26:13.133318+00:00,8.895000,-0.008360,
2025-10-15T08:26:13.138318+00:00,8.900000,-0.008740,
2025-10-15T08:26:13.143318+00:00,8.905000,-0.009120,
2025-10-15T08:26:13.148318+00:00,8.910000,-0.008740,
2025-10-15T08:26:13.153318+00:00,8.915000,-0.005320,
2025-10-15T08:26:13.158318+00:00,8.920000,-0.001900,
2025-10-15T08:26:13.163318+00:00,8.925000,-0.004940,
2025-10-15T08:26:13.168318+00:00,8.930000,-0.007600,
2025-10-15T08:26:13.173318+00:00,8.935000,-0.004180,
2025-10-15T08:26:13.178318+00:00,8.940000,0.003420,
2025-10-15T08:26:13.183318+00:00,8.945000,0.009500,
2025-10-15T08:26:13.188318+00:00,8.950000,0.010640,
2025-10-15T08:26:13.193318+00:00,8.955000,0.009500,
2025-10-15T08:26:13.198318+00:00,8.960000,0.010640,
2025-10-15T08:26:13.203318+00:00,8.965000,0.012160,
2025-10-15T08:26:13.208318+00:00,8.970000,0.009500,
2025-10-15T08:26:13.213318+00:00,8.975000,0.003800,
2025-10-15T08:26:13.218318+00:00,8.980000,-0.002660,
2025-10-15T08:26:13.223318+00:00,8.985000,-0.004940,
2025-10-15T08:26:13.228318+00:00,8.990000,-0.007220,
2025-10-15T08:26:13.233318+00:00,8.995000,-0.009120,
2025-10-15T08:26:13.238318+00:00,9.000000,-0.015200,
2025-10-15T08:26:13.243318+00:00,9.005000,-0.025460,
2025-10-15T08:26:13.248318+00:00,9.010000,-0.039520,
2025-10-15T08:26:13.253318+00:00,9.015000,-0.053580,
2025-10-15T08:26:13.258318+00:00,9.020000,-0.063460,
2025-10-15T08:26:13.263318+00:00,9.025000,-0.071820,
2025-10-15T08:26:13.268318+00:00,9.030000,-0.083600,
2025-10-15T08:26:13.273318+00:00,9.035000,-0.099560,
2025-10-15T08:26:13.278318+00:00,9.040000,-0.112480,
2025-10-15T08:26:13.283318+00:00,9.045000,-0.121220,
2025-10-15T08:26:13.288318+00:00,9.050000,-0.126920,
2025-10-15T08:26:13.293318+00:00,9.055000,-0.130340,
2025-10-15T08:26:13.298318+00:00,9.060000,-0.131480,
2025-10-15T08:26:13.303318+00:00,9.065000,-0.125780,
2025-10-15T08:26:13.308318+00:00,9.070000,-0.115140,
2025-10-15T08:26:13.313318+00:00,9.075000,-0.107540,
2025-10-15T08:26:13.318318+00:00,9.080000,-0.103360,
2025-10-15T08:26:13.323318+00:00,9.085000,-0.098800,
2025-10-15T08:26:13.328318+00:00,9.090000,-0.091580,
2025-10-15T08:26:13.333318+00:00,9.095000,-0.080560,
2025-10-15T08:26:13.338318+00:00,9.100000,-0.072580,
2025-10-15T08:26:13.343318+00:00,9.105000,-0.068780,
2025-10-15T08:26:13.348318+00:00,9.110000,-0.063460,
2025-10-15T08:26:13.353318+00:00,9.115000,-0.053200,
2025-10-15T08:26:13.358318+00:00,9.120000,-0.041800,
2025-10-15T08:26:13.363318+00:00,9.125000,-0.036100,
2025-10-15T08:26:13.368318+00:00,9.130000,-0.036100,
2025-10-15T08:26:13.373318+00:00,9.135000,-0.039520,
2025-10-15T08:26:13.378318+00:00,9.140000,-0.039520,
2025-10-15T08:26:13.383318+00:00,9.145000,-0.036100,
2025-10-15T08:26:13.388318+00:00,9.150000,-0.030400,
2025-10-15T08:26:13.393318+00:00,9.155000,-0.028120,
2025-10-15T08:26:13.398318+00:00,9.160000,-0.031160,
2025-10-15T08:26:13.403318+00:00,9.165000,-0.033440,
2025-10-15T08:26:13.408318+00:00,9.170000,-0.033440,
2025-10-15T08:26:13.413318+00:00,9.175000,-0.029640,
2025-10-15T08:26:13.418318+00:00,9.180000,-0.024700,
2025-10-15T08:26:13.423318+00:00,9.185000,-0.025080,
2025-10-15T08:26:13.428318+00:00,9.190000,-0.027740,
2025-10-15T08:26:13.433318+00:00,9.195000,-0.029260,
2025-10-15T08:26:13.438318+00:00,9.200000,-0.027740,
2025-10-15T08:26:13.443318+00:00,9.205000,-0.026600,
2025-10-15T08:26:13.448318+00:00,9.210000,-0.027740,
2025-10-15T08:26:13.453318+00:00,9.215000,-0.031160,
2025-10-15T08:26:13.458318+00:00,9.220000,-0.032680,
2025-10-15T08:26:13.463318+00:00,9.225000,-0.031540,
2025-10-15T08:26:13.468318+00:00,9.230000,-0.030400,
2025-10-15T08:26:13.473318+00:00,9.235000,-0.031920,
2025-10-15T08:26:13.478318+00:00,9.240000,-0.034580,
2025-10-15T08:26:13.483318+00:00,9.245000,-0.037240,
2025-10-15T08:26:13.488318+00:00,9.250000,-0.037240,
2025-10-15T08:26:13.493318+00:00,9.255000,-0.034960,
2025-10-15T08:26:13.498318+00:00,9.260000,-0.033440,
2025-10-15T08:26:13.503318+00:00,9.265000,-0.035720,
2025-10-15T08:26:13.508318+00:00,9.270000,-0.041420,
2025-10-15T08:26:13.513318+00:00,9.275000,-0.042560,
2025-10-15T08:26:13.518318+00:00,9.280000,-0.038380,
2025-10-15T08:26:13.523318+00:00,9.285000,-0.030400,
2025-10-15T08:26:13.528318+00:00,9.290000,-0.023940,
2025-10-15T08:26:13.533318+00:00,9.295000,-0.026600,
2025-10-15T08:26:13.538318+00:00,9.300000,-0.033820,
2025-10-15T08:26:13.543318+00:00,9.305000,-0.037620,
2025-10-15T08:26:13.548318+00:00,9.310000,-0.039140,
2025-10-15T08:26:13.553318+00:00,9.315000,-0.037240,
2025-10-15T08:26:13.558318+00:00,9.320000,-0.033060,
2025-10-15T08:26:13.563318+00:00,9.325000,-0.031160,
2025-10-15T08:26:13.568318+00:00,9.330000,-0.031540,
2025-10-15T08:26:13.573318+00:00,9.335000,-0.035340,
2025-10-15T08:26:13.578318+00:00,9.340000,-0.036480,
2025-10-15T08:26:13.583318+00:00,9.345000,-0.033440,
2025-10-15T08:26:13.588318+00:00,9.350000,-0.028500,
2025-10-15T08:26:13.593318+00:00,9.355000,-0.026600,
2025-10-15T08:26:13.598318+00:00,9.360000,-0.028120,
2025-10-15T08:26:13.603318+00:00,9.365000,-0.031160,
2025-10-15T08:26:13.608318+00:00,9.370000,-0.031540,
2025-10-15T08:26:13.613318+00:00,9.375000,-0.031540,
2025-10-15T08:26:13.618318+00:00,9.380000,-0.031540,
2025-10-15T08:26:13.623318+00:00,9.385000,-0.031540,
2025-10-15T08:26:13.628318+00:00,9.390000,-0.032300,
2025-10-15T08:26:13.633318+00:00,9.395000,-0.031540,
2025-10-15T08:26:13.638318+00:00,9.400000,-0.031540,
2025-10-15T08:26:13.643318+00:00,9.405000,-0.031540,
2025-10-15T08:26:13.648318+00:00,9.410000,-0.031920,
2025-10-15T08:26:13.653318+00:00,9.415000,-0.029640,
2025-10-15T08:26:13.658318+00:00,9.420000,-0.027740,
2025-10-15T08:26:13.663318+00:00,9.425000,-0.028880,
2025-10-15T08:26:13.668318+00:00,9.430000,-0.032680,
2025-10-15T08:26:13.673318+00:00,9.435000,-0.035720,
2025-10-15T08:26:13.678318+00:00,9.440000,-0.033820,
2025-10-15T08:26:13.683318+00:00,9.445000,-0.027740,
2025-10-15T08:26:13.688318+00:00,9.450000,-0.025460,
2025-10-15T08:26:13.693318+00:00,9.455000,-0.026980,
2025-10-15T08:26:13.698318+00:00,9.460000,-0.028880,
2025-10-15T08:26:13.703318+00:00,9.465000,-0.028880,
2025-10-15T08:26:13.708318+00:00,9.470000,-0.028500,
2025-10-15T08:26:13.713318+00:00,9.475000,-0.029640,
2025-10-15T08:26:13.718318+00:00,9.480000,-0.031160,
2025-10-15T08:26:13.723318+00:00,9.485000,-0.032300,
2025-10-15T08:26:13.728318+00:00,9.490000,-0.030400,
2025-10-15T08:26:13.733318+00:00,9.495000,-0.028880,
2025-10-15T08:26:13.738318+00:00,9.500000,-0.027360,
2025-10-15T08:26:13.743318+00:00,9.505000,-0.027360,
2025-10-15T08:26:13.748318+00:00,9.510000,-0.029260,
2025-10-15T08:26:13.753318+00:00,9.515000,-0.030780,
2025-10-15T08:26:13.758318+00:00,9.520000,-0.030400,
2025-10-15T08:26:13.763318+00:00,9.525000,-0.028880,
2025-10-15T08:26:13.768318+00:00,9.530000,-0.029260,
2025-10-15T08:26:13.773318+00:00,9.535000,-0.031160,
2025-10-15T08:26:13.778318+00:00,9.540000,-0.032680,
2025-10-15T08:26:13.783318+00:00,9.545000,-0.032300,
2025-10-15T08:26:13.788318+00:00,9.550000,-0.031540,
2025-10-15T08:26:13.793318+00:00,9.555000,-0.030400,
2025-10-15T08:26:13.798318+00:00,9.560000,-0.030020,
2025-10-15T08:26:13.803318+00:00,9.565000,-0.027740,
2025-10-15T08:26:13.808318+00:00,9.570000,-0.025080,
2025-10-15T08:26:13.813318+00:00,9.575000,-0.023560,
2025-10-15T08:26:13.818318+00:00,9.580000,-0.026220,
2025-10-15T08:26:13.823318+00:00,9.585000,-0.030400,
2025-10-15T08:26:13.828318+00:00,9.590000,-0.033440,
2025-10-15T08:26:13.833318+00:00,9.595000,-0.032680,
2025-10-15T08:26:13.838318+00:00,9.600000,-0.030020,
2025-10-15T08:26:13.843318+00:00,9.605000,-0.027360,
2025-10-15T08:26:13.848318+00:00,9.610000,-0.027360,
2025-10-15T08:26:13.853318+00:00,9.615000,-0.026980,
2025-10-15T08:26:13.858318+00:00,9.620000,-0.029640,
2025-10-15T08:26:13.863318+00:00,9.625000,-0.031920,
2025-10-15T08:26:13.868318+00:00,9.630000,-0.030780,
2025-10-15T08:26:13.873318+00:00,9.635000,-0.023940,
2025-10-15T08:26:13.878318+00:00,9.640000,-0.015580,
2025-10-15T08:26:13.883318+00:00,9.645000,-0.014060,
2025-10-15T08:26:13.888318+00:00,9.650000,-0.021660,
2025-10-15T08:26:13.893318+00:00,9.655000,-0.028880,
2025-10-15T08:26:13.898318+00:00,9.660000,-0.031920,
2025-10-15T08:26:13.903318+00:00,9.665000,-0.030020,
2025-10-15T08:26:13.908318+00:00,9.670000,-0.028880,
2025-10-15T08:26:13.913318+00:00,9.675000,-0.030020,
2025-10-15T08:26:13.918318+00:00,9.680000,-0.028500,
2025-10-15T08:26:13.923318+00:00,9.685000,-0.024700,
2025-10-15T08:26:13.928318+00:00,9.690000,-0.018620,
2025-10-15T08:26:13.933318+00:00,9.695000,-0.017860,
2025-10-15T08:26:13.938318+00:00,9.700000,-0.022800,
2025-10-15T08:26:13.943318+00:00,9.705000,-0.029260,
2025-10-15T08:26:13.948318+00:00,9.710000,-0.034580,
2025-10-15T08:26:13.953318+00:00,9.715000,-0.040280,
2025-10-15T08:26:13.958318+00:00,9.720000,-0.044080,
2025-10-15T08:26:13.963318+00:00,9.725000,-0.046360,
2025-10-15T08:26:13.968318+00:00,9.730000,-0.045980,
2025-10-15T08:26:13.973318+00:00,9.735000,-0.042560,
2025-10-15T08:26:13.978318+00:00,9.740000,-0.038380,
2025-10-15T08:26:13.983318+00:00,9.745000,-0.038000,
2025-10-15T08:26:13.988318+00:00,9.750000,-0.034960,
2025-10-15T08:26:13.993318+00:00,9.755000,-0.033060,
2025-10-15T08:26:13.998318+00:00,9.760000,-0.038760,
2025-10-15T08:26:14.003318+00:00,9.765000,-0.044460,
2025-10-15T08:26:14.008318+00:00,9.770000,-0.019760,
2025-10-15T08:26:14.013318+00:00,9.775000,0.046360,
2025-10-15T08:26:14.018318+00:00,9.780000,0.124260,
2025-10-15T08:26:14.023318+00:00,9.785000,0.166820,
2025-10-15T08:26:14.028318+00:00,9.790000,0.180500,
2025-10-15T08:26:14.033318+00:00,9.795000,0.207860,
2025-10-15T08:26:14.038318+00:00,9.800000,0.253840,
2025-10-15T08:26:14.043318+00:00,9.805000,0.234080,
2025-10-15T08:26:14.048318+00:00,9.810000,0.074480,
2025-10-15T08:26:14.053318+00:00,9.815000,-0.177080,
2025-10-15T08:26:14.058318+00:00,9.820000,-0.369740,
2025-10-15T08:26:14.063318+00:00,9.825000,-0.405840,
2025-10-15T08:26:14.068318+00:00,9.830000,-0.323000,
2025-10-15T08:26:14.073318+00:00,9.835000,-0.223440,
2025-10-15T08:26:14.078318+00:00,9.840000,-0.160360,
2025-10-15T08:26:14.083318+00:00,9.845000,-0.118560,
2025-10-15T08:26:14.088318+00:00,9.850000,-0.074860,
2025-10-15T08:26:14.093318+00:00,9.855000,-0.038000,
2025-10-15T08:26:14.098318+00:00,9.860000,-0.021280,
2025-10-15T08:26:14.103318+00:00,9.865000,-0.019000,
2025-10-15T08:26:14.108318+00:00,9.870000,-0.019760,
2025-10-15T08:26:14.113318+00:00,9.875000,-0.019760,
2025-10-15T08:26:14.118318+00:00,9.880000,-0.019380,
2025-10-15T08:26:14.123318+00:00,9.885000,-0.019000,
2025-10-15T08:26:14.128318+00:00,9.890000,-0.017100,
2025-10-15T08:26:14.133318+00:00,9.895000,-0.013680,
2025-10-15T08:26:14.138318+00:00,9.900000,-0.010640,
2025-10-15T08:26:14.143318+00:00,9.905000,-0.008740,
2025-10-15T08:26:14.148318+00:00,9.910000,-0.010640,
2025-10-15T08:26:14.153318+00:00,9.915000,-0.012160,
2025-10-15T08:26:14.158318+00:00,9.920000,-0.013300,
2025-10-15T08:26:14.163318+00:00,9.925000,-0.014060,
2025-10-15T08:26:14.168318+00:00,9.930000,-0.014060,
2025-10-15T08:26:14.173318+00:00,9.935000,-0.013300,
2025-10-15T08:26:14.178318+00:00,9.940000,-0.012160,
2025-10-15T08:26:14.183318+00:00,9.945000,-0.009500,
2025-10-15T08:26:14.188318+00:00,9.950000,-0.007600,
2025-10-15T08:26:14.193318+00:00,9.955000,-0.006080,
2025-10-15T08:26:14.198318+00:00,9.960000,-0.004180,
2025-10-15T08:26:14.203318+00:00,9.965000,-0.003420,
2025-10-15T08:26:14.208318+00:00,9.970000,-0.002660,
2025-10-15T08:26:14.213318+00:00,9.975000,-0.001520,
2025-10-15T08:26:14.218318+00:00,9.980000,0.001900,
2025-10-15T08:26:14.223318+00:00,9.985000,0.004940,
2025-10-15T08:26:14.228318+00:00,9.990000,0.006460,
2025-10-15T08:26:14.233318+00:00,9.995000,0.006460,
2025-10-15T08:26:14.238318+00:00,10.000000,0.007600,
2025-10-15T08:26:14.243318+00:00,10.005000,0.007980,
2025-10-15T08:26:14.248318+00:00,10.010000,0.006460,
2025-10-15T08:26:14.253318+00:00,10.015000,0.002280,
2025-10-15T08:26:14.258318+00:00,10.020000,-0.002660,
2025-10-15T08:26:14.263318+00:00,10.025000,-0.004560,
2025-10-15T08:26:14.268318+00:00,10.030000,-0.006080,
2025-10-15T08:26:14.273318+00:00,10.035000,-0.007220,
2025-10-15T08:26:14.278318+00:00,10.040000,-0.013300,
2025-10-15T08:26:14.283318+00:00,10.045000,-0.025840,
2025-10-15T08:26:14.288318+00:00,10.050000,-0.039900,
2025-10-15T08:26:14.293318+00:00,10.055000,-0.050160,
2025-10-15T08:26:14.298318+00:00,10.060000,-0.058140,
2025-10-15T08:26:14.303318+00:00,10.065000,-0.066880,
2025-10-15T08:26:14.308318+00:00,10.070000,-0.080940,
2025-10-15T08:26:14.313318+00:00,10.075000,-0.099180,
2025-10-15T08:26:14.318318+00:00,10.080000,-0.114000,
2025-10-15T08:26:14.323318+00:00,10.085000,-0.122360,
2025-10-15T08:26:14.328318+00:00,10.090000,-0.124640,
2025-10-15T08:26:14.333318+00:00,10.095000,-0.125400,
2025-10-15T08:26:14.338318+00:00,10.100000,-0.125780,
2025-10-15T08:26:14.343318+00:00,10.105000,-0.125780,
2025-10-15T08:26:14.348318+00:00,10.110000,-0.120080,
2025-10-15T08:26:14.353318+00:00,10.115000,-0.108680,
2025-10-15T08:26:14.358318+00:00,10.120000,-0.097280,
2025-10-15T08:26:14.363318+00:00,10.125000,-0.090060,
2025-10-15T08:26:14.368318+00:00,10.130000,-0.087400,
2025-10-15T08:26:14.373318+00:00,10.135000,-0.084360,
2025-10-15T08:26:14.378318+00:00,10.140000,-0.076000,
2025-10-15T08:26:14.383318+00:00,10.145000,-0.064980,
2025-10-15T08:26:14.388318+00:00,10.150000,-0.056620,
2025-10-15T08:26:14.393318+00:00,10.155000,-0.050920,
2025-10-15T08:26:14.398318+00:00,10.160000,-0.046740,
2025-10-15T08:26:14.403318+00:00,10.165000,-0.041800,
2025-10-15T08:26:14.408318+00:00,10.170000,-0.036860,
2025-10-15T08:26:14.413318+00:00,10.175000,-0.033060,
2025-10-15T08:26:14.418318+00:00,10.180000,-0.031160,
2025-10-15T08:26:14.423318+00:00,10.185000,-0.032300,
2025-10-15T08:26:14.428318+00:00,10.190000,-0.031540,
2025-10-15T08:26:14.433318+00:00,10.195000,-0.029260,
2025-10-15T08:26:14.438318+00:00,10.200000,-0.025460,
2025-10-15T08:26:14.443318+00:00,10.205000,-0.023180,
2025-10-15T08:26:14.448318+00:00,10.210000,-0.022420,
2025-10-15T08:26:14.453318+00:00,10.215000,-0.023940,
2025-10-15T08:26:14.458318+00:00,10.220000,-0.025840,
2025-10-15T08:26:14.463318+00:00,10.225000,-0.026600,
2025-10-15T08:26:14.468318+00:00,10.230000,-0.026220,
2025-10-15T08:26:14.473318+00:00,10.235000,-0.025460,
2025-10-15T08:26:14.478318+00:00,10.240000,-0.025460,
2025-10-15T08:26:14.483318+00:00,10.245000,-0.028500,
2025-10-15T08:26:14.488318+00:00,10.250000,-0.031920,
2025-10-15T08:26:14.493318+00:00,10.255000,-0.033820,
2025-10-15T08:26:14.498318+00:00,10.260000,-0.034580,
2025-10-15T08:26:14.503318+00:00,10.265000,-0.034200,
2025-10-15T08:26:14.508318+00:00,10.270000,-0.033440,
2025-10-15T08:26:14.513318+00:00,10.275000,-0.030020,
2025-10-15T08:26:14.518318+00:00,10.280000,-0.026980,
2025-10-15T08:26:14.523318+00:00,10.285000,-0.025840,
2025-10-15T08:26:14.528318+00:00,10.290000,-0.028880,
2025-10-15T08:26:14.533318+00:00,10.295000,-0.033440,
2025-10-15T08:26:14.538318+00:00,10.300000,-0.034580,
2025-10-15T08:26:14.543318+00:00,10.305000,-0.033820,
2025-10-15T08:26:14.548318+00:00,10.310000,-0.034580,
2025-10-15T08:26:14.553318+00:00,10.315000,-0.034580,
2025-10-15T08:26:14.558318+00:00,10.320000,-0.034960,
2025-10-15T08:26:14.563318+00:00,10.325000,-0.034580,
2025-10-15T08:26:14.568318+00:00,10.330000,-0.035720,
2025-10-15T08:26:14.573318+00:00,10.335000,-0.038380,
2025-10-15T08:26:14.578318+00:00,10.340000,-0.039900,
2025-10-15T08:26:14.583318+00:00,10.345000,-0.036860,
2025-10-15T08:26:14.588318+00:00,10.350000,-0.034960,
2025-10-15T08:26:14.593318+00:00,10.355000,-0.033820,
2025-10-15T08:26:14.598318+00:00,10.360000,-0.034200,
2025-10-15T08:26:14.603318+00:00,10.365000,-0.032300,
2025-10-15T08:26:14.608318+00:00,10.370000,-0.026980,
2025-10-15T08:26:14.613318+00:00,10.375000,-0.026980,
2025-10-15T08:26:14.618318+00:00,10.380000,-0.031540,
2025-10-15T08:26:14.623318+00:00,10.385000,-0.036100,
2025-10-15T08:26:14.628318+00:00,10.390000,-0.036100,
2025-10-15T08:26:14.633318+00:00,10.395000,-0.031160,
2025-10-15T08:26:14.638318+00:00,10.400000,-0.027740,
2025-10-15T08:26:14.643318+00:00,10.405000,-0.029260,
2025-10-15T08:26:14.648318+00:00,10.410000,-0.034960,
2025-10-15T08:26:14.653318+00:00,10.415000,-0.038380,
2025-10-15T08:26:14.658318+00:00,10.420000,-0.038000,
2025-10-15T08:26:14.663318+00:00,10.425000,-0.033820,
2025-10-15T08:26:14.668318+00:00,10.430000,-0.030400,
2025-10-15T08:26:14.673318+00:00,10.435000,-0.028500,
2025-10-15T08:26:14.678318+00:00,10.440000,-0.028120,
2025-10-15T08:26:14.683318+00:00,10.445000,-0.028120,
2025-10-15T08:26:14.688318+00:00,10.450000,-0.030400,
2025-10-15T08:26:14.693318+00:00,10.455000,-0.031160,
2025-10-15T08:26:14.698318+00:00,10.460000,-0.032300,
2025-10-15T08:26:14.703318+00:00,10.465000,-0.032680,
2025-10-15T08:26:14.708318+00:00,10.470000,-0.033060,
2025-10-15T08:26:14.713318+00:00,10.475000,-0.033060,
2025-10-15T08:26:14.718318+00:00,10.480000,-0.033060,
2025-10-15T08:26:14.723318+00:00,10.485000,-0.032300,
2025-10-15T08:26:14.728318+00:00,10.490000,-0.033060,
2025-10-15T08:26:14.733318+00:00,10.495000,-0.032300,
2025-10-15T08:26:14.738318+00:00,10.500000,-0.031160,
2025-10-15T08:26:14.743318+00:00,10.505000,-0.031160,
2025-10-15T08:26:14.748318+00:00,10.510000,-0.032680,
2025-10-15T08:26:14.753318+00:00,10.515000,-0.033440,
2025-10-15T08:26:14.758318+00:00,10.520000,-0.032300,
2025-10-15T08:26:14.763318+00:00,10.525000,-0.030020,
2025-10-15T08:26:14.768318+00:00,10.530000,-0.030020,
2025-10-15T08:26:14.773318+00:00,10.535000,-0.031160,
2025-10-15T08:26:14.778318+00:00,10.540000,-0.030780,
2025-10-15T08:26:14.783318+00:00,10.545000,-0.028880,
2025-10-15T08:26:14.788318+00:00,10.550000,-0.027740,
2025-10-15T08:26:14.793318+00:00,10.555000,-0.028500,
2025-10-15T08:26:14.798318+00:00,10.560000,-0.030780,
2025-10-15T08:26:14.803318+00:00,10.565000,-0.033440,
2025-10-15T08:26:14.808318+00:00,10.570000,-0.035720,
2025-10-15T08:26:14.813318+00:00,10.575000,-0.034960,
2025-10-15T08:26:14.818318+00:00,10.580000,-0.030780,
2025-10-15T08:26:14.823318+00:00,10.585000,-0.027740,
2025-10-15T08:26:14.828318+00:00,10.590000,-0.027360,
2025-10-15T08:26:14.833318+00:00,10.595000,-0.030780,
2025-10-15T08:26:14.838318+00:00,10.600000,-0.031540,
2025-10-15T08:26:14.843318+00:00,10.605000,-0.029260,
2025-10-15T08:26:14.848318+00:00,10.610000,-0.028880,
2025-10-15T08:26:14.853318+00:00,10.615000,-0.029640,
2025-10-15T08:26:14.858318+00:00,10.620000,-0.031920,
2025-10-15T08:26:14.863318+00:00,10.625000,-0.032680,
2025-10-15T08:26:14.868318+00:00,10.630000,-0.029260,
2025-10-15T08:26:14.873318+00:00,10.635000,-0.027360,
2025-10-15T08:26:14.878318+00:00,10.640000,-0.031160,
2025-10-15T08:26:14.883318+00:00,10.645000,-0.037240,
2025-10-15T08:26:14.888318+00:00,10.650000,-0.036100,
2025-10-15T08:26:14.893318+00:00,10.655000,-0.026600,
2025-10-15T08:26:14.898318+00:00,10.660000,-0.015200,
2025-10-15T08:26:14.903318+00:00,10.665000,-0.012920,
2025-10-15T08:26:14.908318+00:00,10.670000,-0.020520,
2025-10-15T08:26:14.913318+00:00,10.675000,-0.031540,
2025-10-15T08:26:14.918318+00:00,10.680000,-0.037620,
2025-10-15T08:26:14.923318+00:00,10.685000,-0.038000,
2025-10-15T08:26:14.928318+00:00,10.690000,-0.033440,
2025-10-15T08:26:14.933318+00:00,10.695000,-0.028500,
2025-10-15T08:26:14.938318+00:00,10.700000,-0.026980,
2025-10-15T08:26:14.943318+00:00,10.705000,-0.027740,
2025-10-15T08:26:14.948318+00:00,10.710000,-0.025080,
2025-10-15T08:26:14.953318+00:00,10.715000,-0.020520,
2025-10-15T08:26:14.958318+00:00,10.720000,-0.019000,
2025-10-15T08:26:14.963318+00:00,10.725000,-0.025460,
2025-10-15T08:26:14.968318+00:00,10.730000,-0.037620,
2025-10-15T08:26:14.973318+00:00,10.735000,-0.046360,
2025-10-15T08:26:14.978318+00:00,10.740000,-0.048640,
2025-10-15T08:26:14.983318+00:00,10.745000,-0.044080,
2025-10-15T08:26:14.988318+00:00,10.750000,-0.041040,
2025-10-15T08:26:14.993318+00:00,10.755000,-0.040280,
2025-10-15T08:26:14.998318+00:00,10.760000,-0.040660,
2025-10-15T08:26:15.003318+00:00,10.765000,-0.040660,
2025-10-15T08:26:15.008318+00:00,10.770000,-0.036860,
2025-10-15T08:26:15.013318+00:00,10.775000,-0.033440,
2025-10-15T08:26:15.018318+00:00,10.780000,-0.038760,
2025-10-15T08:26:15.023318+00:00,10.785000,-0.045220,
2025-10-15T08:26:15.028318+00:00,10.790000,-0.019000,
2025-10-15T08:26:15.033318+00:00,10.795000,0.053960,
2025-10-15T08:26:15.038318+00:00,10.800000,0.137560,
2025-10-15T08:26:15.043318+00:00,10.805000,0.183540,
2025-10-15T08:26:15.048318+00:00,10.810000,0.197980,
2025-10-15T08:26:15.053318+00:00,10.815000,0.228000,
2025-10-15T08:26:15.058318+00:00,10.820000,0.267140,
2025-10-15T08:26:15.063318+00:00,10.825000,0.223440,
2025-10-15T08:26:15.068318+00:00,10.830000,0.030780,
2025-10-15T08:26:15.073318+00:00,10.835000,-0.245100,
2025-10-15T08:26:15.078318+00:00,10.840000,-0.440420,
2025-10-15T08:26:15.083318+00:00,10.845000,-0.457140,
2025-10-15T08:26:15.088318+00:00,10.850000,-0.344660,
2025-10-15T08:26:15.093318+00:00,10.855000,-0.213560,
2025-10-15T08:26:15.098318+00:00,10.860000,-0.131480,
2025-10-15T08:26:15.103318+00:00,10.865000,-0.087780,
2025-10-15T08:26:15.108318+00:00,10.870000,-0.054720,
2025-10-15T08:26:15.113318+00:00,10.875000,-0.025460,
2025-10-15T08:26:15.118318+00:00,10.880000,-0.012160,
2025-10-15T08:26:15.123318+00:00,10.885000,-0.011780,
2025-10-15T08:26:15.128318+00:00,10.890000,-0.012920,
2025-10-15T08:26:15.133318+00:00,10.895000,-0.013300,
2025-10-15T08:26:15.138318+00:00,10.900000,-0.012540,
2025-10-15T08:26:15.143318+00:00,10.905000,-0.014060,
2025-10-15T08:26:15.148318+00:00,10.910000,-0.014440,
2025-10-15T08:26:15.153318+00:00,10.915000,-0.015200,
2025-10-15T08:26:15.158318+00:00,10.920000,-0.015960,
2025-10-15T08:26:15.163318+00:00,10.925000,-0.016720,
2025-10-15T08:26:15.168318+00:00,10.930000,-0.015960,
2025-10-15T08:26:15.173318+00:00,10.935000,-0.014060,
2025-10-15T08:26:15.178318+00:00,10.940000,-0.012920,
2025-10-15T08:26:15.183318+00:00,10.945000,-0.012160,
2025-10-15T08:26:15.188318+00:00,10.950000,-0.012160,
2025-10-15T08:26:15.193318+00:00,10.955000,-0.011400,
2025-10-15T08:26:15.198318+00:00,10.960000,-0.007600,
2025-10-15T08:26:15.203318+00:00,10.965000,-0.004940,
2025-10-15T08:26:15.208318+00:00,10.970000,-0.004940,
2025-10-15T08:26:15.213318+00:00,10.975000,-0.008740,
2025-10-15T08:26:15.218318+00:00,10.980000,-0.008360,
2025-10-15T08:26:15.223318+00:00,10.985000,-0.006080,
2025-10-15T08:26:15.228318+00:00,10.990000,-0.000380,
2025-10-15T08:26:15.233318+00:00,10.995000,0.003040,
2025-10-15T08:26:15.238318+00:00,11.000000,0.004180,
2025-10-15T08:26:15.243318+00:00,11.005000,0.003420,
2025-10-15T08:26:15.248318+00:00,11.010000,0.001900,
2025-10-15T08:26:15.253318+00:00,11.015000,0.001520,
2025-10-15T08:26:15.258318+00:00,11.020000,0.002280,
2025-10-15T08:26:15.263318+00:00,11.025000,0.005700,
2025-10-15T08:26:15.268318+00:00,11.030000,0.008740,
2025-10-15T08:26:15.273318+00:00,11.035000,0.007600,
2025-10-15T08:26:15.278318+00:00,11.040000,0.002660,
2025-10-15T08:26:15.283318+00:00,11.045000,-0.002660,
2025-10-15T08:26:15.288318+00:00,11.050000,-0.003800,
2025-10-15T08:26:15.293318+00:00,11.055000,-0.006460,
2025-10-15T08:26:15.298318+00:00,11.060000,-0.012920,
2025-10-15T08:26:15.303318+00:00,11.065000,-0.023560,
2025-10-15T08:26:15.308318+00:00,11.070000,-0.035720,
2025-10-15T08:26:15.313318+00:00,11.075000,-0.049400,
2025-10-15T08:26:15.318318+00:00,11.080000,-0.061940,
2025-10-15T08:26:15.323318+00:00,11.085000,-0.074100,
2025-10-15T08:26:15.328318+00:00,11.090000,-0.087400,
2025-10-15T08:26:15.333318+00:00,11.095000,-0.102980,
2025-10-15T08:26:15.338318+00:00,11.100000,-0.116280,
2025-10-15T08:26:15.343318+00:00,11.105000,-0.128060,
2025-10-15T08:26:15.348318+00:00,11.110000,-0.131860,
2025-10-15T08:26:15.353318+00:00,11.115000,-0.130340,
2025-10-15T08:26:15.358318+00:00,11.120000,-0.128440,
2025-10-15T08:26:15.363318+00:00,11.125000,-0.126540,
2025-10-15T08:26:15.368318+00:00,11.130000,-0.123880,
2025-10-15T08:26:15.373318+00:00,11.135000,-0.118180,
2025-10-15T08:26:15.378318+00:00,11.140000,-0.109440,
2025-10-15T08:26:15.383318+00:00,11.145000,-0.099560,
2025-10-15T08:26:15.388318+00:00,11.150000,-0.090060,
2025-10-15T08:26:15.393318+00:00,11.155000,-0.082460,
2025-10-15T08:26:15.398318+00:00,11.160000,-0.074100,
2025-10-15T08:26:15.403318+00:00,11.165000,-0.067260,
2025-10-15T08:26:15.408318+00:00,11.170000,-0.060040,
2025-10-15T08:26:15.413318+00:00,11.175000,-0.051680,
2025-10-15T08:26:15.418318+00:00,11.180000,-0.044460,
2025-10-15T08:26:15.423318+00:00,11.185000,-0.037620,
2025-10-15T08:26:15.428318+00:00,11.190000,-0.035340,
2025-10-15T08:26:15.433318+00:00,11.195000,-0.035720,
2025-10-15T08:26:15.438318+00:00,11.200000,-0.035340,
2025-10-15T08:26:15.443318+00:00,11.205000,-0.033440,
2025-10-15T08:26:15.448318+00:00,11.210000,-0.027360,
2025-10-15T08:26:15.453318+00:00,11.215000,-0.023940,
2025-10-15T08:26:15.458318+00:00,11.220000,-0.024320,
2025-10-15T08:26:15.463318+00:00,11.225000,-0.025840,
2025-10-15T08:26:15.468318+00:00,11.230000,-0.028120,
2025-10-15T08:26:15.473318+00:00,11.235000,-0.030020,
2025-10-15T08:26:15.478318+00:00,11.240000,-0.032300,
2025-10-15T08:26:15.483318+00:00,11.245000,-0.033820,
2025-10-15T08:26:15.488318+00:00,11.250000,-0.031540,
2025-10-15T08:26:15.493318+00:00,11.255000,-0.026980,
2025-10-15T08:26:15.498318+00:00,11.260000,-0.025460,
2025-10-15T08:26:15.503318+00:00,11.265000,-0.028500,
2025-10-15T08:26:15.508318+00:00,11.270000,-0.031920,
2025-10-15T08:26:15.513318+00:00,11.275000,-0.033820,
2025-10-15T08:26:15.518318+00:00,11.280000,-0.034960,
2025-10-15T08:26:15.523318+00:00,11.285000,-0.035720,
2025-10-15T08:26:15.528318+00:00,11.290000,-0.036480,
2025-10-15T08:26:15.533318+00:00,11.295000,-0.035720,
2025-10-15T08:26:15.538318+00:00,11.300000,-0.033820,
2025-10-15T08:26:15.543318+00:00,11.305000,-0.031920,
2025-10-15T08:26:15.548318+00:00,11.310000,-0.032680,
2025-10-15T08:26:15.553318+00:00,11.315000,-0.036100,
2025-10-15T08:26:15.558318+00:00,11.320000,-0.039520,
2025-10-15T08:26:15.563318+00:00,11.325000,-0.041040,
2025-10-15T08:26:15.568318+00:00,11.330000,-0.037240,
2025-10-15T08:26:15.573318+00:00,11.335000,-0.034200,
2025-10-15T08:26:15.578318+00:00,11.340000,-0.033060,
