timestamp_utc,t_rel_sec,ecg_mV,event
2025-10-24T08:07:05.828025+00:00,0.000000,0.000000,
2025-10-24T08:07:05.833025+00:00,0.005000,0.000000,
2025-10-24T08:07:05.838025+00:00,0.010000,-0.001140,
2025-10-24T08:07:05.843025+00:00,0.015000,0.000380,
2025-10-24T08:07:05.848025+00:00,0.020000,0.014820,
2025-10-24T08:07:05.853025+00:00,0.025000,-0.072580,
2025-10-24T08:07:05.858025+00:00,0.030000,0.005700,
2025-10-24T08:07:05.863025+00:00,0.035000,0.400900,
2025-10-24T08:07:05.868025+00:00,0.040000,-0.533140,
2025-10-24T08:07:05.873025+00:00,0.045000,-1.295420,
2025-10-24T08:07:05.878025+00:00,0.050000,1.950920,
2025-10-24T08:07:05.883025+00:00,0.055000,3.657120,
2025-10-24T08:07:05.888025+00:00,0.060000,-3.626340,
2025-10-24T08:07:05.893025+00:00,0.065000,-12.051320,
2025-10-24T08:07:05.898025+00:00,0.070000,-4.957860,
2025-10-24T08:07:05.903025+00:00,0.075000,20.688340,
2025-10-24T08:07:05.908025+00:00,0.080000,47.032980,
2025-10-24T08:07:05.913025+00:00,0.085000,48.611120,
2025-10-24T08:07:05.918025+00:00,0.090000,46.225860,
2025-10-24T08:07:05.923025+00:00,0.095000,34.121720,
2025-10-24T08:07:05.928025+00:00,0.100000,26.418740,
2025-10-24T08:07:05.933025+00:00,0.105000,19.362520,
2025-10-24T08:07:05.938025+00:00,0.110000,12.475020,
2025-10-24T08:07:05.943025+00:00,0.115000,8.034340,
2025-10-24T08:07:05.948025+00:00,0.120000,4.971160,
2025-10-24T08:07:05.953025+00:00,0.125000,2.421740,
2025-10-24T08:07:05.958025+00:00,0.130000,0.552140,
2025-10-24T08:07:05.963025+00:00,0.135000,-0.790400,
2025-10-24T08:07:05.968025+00:00,0.140000,-1.780300,
2025-10-24T08:07:05.973025+00:00,0.145000,-2.502680,
2025-10-24T08:07:05.978025+00:00,0.150000,-3.021000,
2025-10-24T08:07:05.983025+00:00,0.155000,-3.388080,
2025-10-24T08:07:05.988025+00:00,0.160000,-3.649140,
2025-10-24T08:07:05.993025+00:00,0.165000,-3.829640,
2025-10-24T08:07:05.998025+00:00,0.170000,-3.950480,
2025-10-24T08:07:06.003025+00:00,0.175000,-4.028000,
2025-10-24T08:07:06.008025+00:00,0.180000,-4.073220,
2025-10-24T08:07:06.013025+00:00,0.185000,-4.088800,
2025-10-24T08:07:06.018025+00:00,0.190000,-4.080060,
2025-10-24T08:07:06.023025+00:00,0.195000,-4.048520,
2025-10-24T08:07:06.028025+00:00,0.200000,-4.001020,
2025-10-24T08:07:06.033025+00:00,0.205000,-3.939840,
2025-10-24T08:07:06.038025+00:00,0.210000,-3.870300,
2025-10-24T08:07:06.043025+00:00,0.215000,-3.794680,
2025-10-24T08:07:06.048025+00:00,0.220000,-3.714120,
2025-10-24T08:07:06.053025+00:00,0.225000,-3.631280,
2025-10-24T08:07:06.058025+00:00,0.230000,-3.549960,
2025-10-24T08:07:06.063025+00:00,0.235000,-3.470920,
2025-10-24T08:07:06.068025+00:00,0.240000,-3.393780,
2025-10-24T08:07:06.073025+00:00,0.245000,-3.317020,
2025-10-24T08:07:06.078025+00:00,0.250000,-3.239880,
2025-10-24T08:07:06.083025+00:00,0.255000,-3.168060,
2025-10-24T08:07:06.088025+00:00,0.260000,-3.099280,
2025-10-24T08:07:06.093025+00:00,0.265000,-3.035060,
2025-10-24T08:07:06.098025+00:00,0.270000,-2.971600,
2025-10-24T08:07:06.103025+00:00,0.275000,-2.912320,
2025-10-24T08:07:06.108025+00:00,0.280000,-2.853800,
2025-10-24T08:07:06.113025+00:00,0.285000,-2.796420,
2025-10-24T08:07:06.118025+00:00,0.290000,-2.739800,
2025-10-24T08:07:06.123025+00:00,0.295000,-2.685080,
2025-10-24T08:07:06.128025+00:00,0.300000,-2.632640,
2025-10-24T08:07:06.133025+00:00,0.305000,-2.583240,
2025-10-24T08:07:06.138025+00:00,0.310000,-2.536120,
2025-10-24T08:07:06.143025+00:00,0.315000,-2.490520,
2025-10-24T08:07:06.148025+00:00,0.320000,-2.444540,
2025-10-24T08:07:06.153025+00:00,0.325000,-2.398180,
2025-10-24T08:07:06.158025+00:00,0.330000,-2.352580,
2025-10-24T08:07:06.163025+00:00,0.335000,-2.307360,
2025-10-24T08:07:06.168025+00:00,0.340000,-2.263660,
2025-10-24T08:07:06.173025+00:00,0.345000,-2.222620,
2025-10-24T08:07:06.178025+00:00,0.350000,-2.181580,
2025-10-24T08:07:06.183025+00:00,0.355000,-2.142060,
2025-10-24T08:07:06.188025+00:00,0.360000,-2.103300,
2025-10-24T08:07:06.193025+00:00,0.365000,-2.069860,
2025-10-24T08:07:06.198025+00:00,0.370000,-2.034520,
2025-10-24T08:07:06.203025+00:00,0.375000,-1.999940,
2025-10-24T08:07:06.208025+00:00,0.380000,-1.963460,
2025-10-24T08:07:06.213025+00:00,0.385000,-1.928880,
2025-10-24T08:07:06.218025+00:00,0.390000,-1.894300,
2025-10-24T08:07:06.223025+00:00,0.395000,-1.863140,
2025-10-24T08:07:06.228025+00:00,0.400000,-1.829700,
2025-10-24T08:07:06.233025+00:00,0.405000,-1.798920,
2025-10-24T08:07:06.238025+00:00,0.410000,-1.768520,
2025-10-24T08:07:06.243025+00:00,0.415000,-1.738880,
2025-10-24T08:07:06.248025+00:00,0.420000,-1.706580,
2025-10-24T08:07:06.253025+00:00,0.425000,-1.673520,
2025-10-24T08:07:06.258025+00:00,0.430000,-1.644640,
2025-10-24T08:07:06.263025+00:00,0.435000,-1.617280,
2025-10-24T08:07:06.268025+00:00,0.440000,-1.591440,
2025-10-24T08:07:06.273025+00:00,0.445000,-1.562940,
2025-10-24T08:07:06.278025+00:00,0.450000,-1.533680,
2025-10-24T08:07:06.283025+00:00,0.455000,-1.505180,
2025-10-24T08:07:06.288025+00:00,0.460000,-1.480860,
2025-10-24T08:07:06.293025+00:00,0.465000,-1.456540,
2025-10-24T08:07:06.298025+00:00,0.470000,-1.431080,
2025-10-24T08:07:06.303025+00:00,0.475000,-1.403340,
2025-10-24T08:07:06.308025+00:00,0.480000,-1.377120,
2025-10-24T08:07:06.313025+00:00,0.485000,-1.350900,
2025-10-24T08:07:06.318025+00:00,0.490000,-1.327720,
2025-10-24T08:07:06.323025+00:00,0.495000,-1.305300,
2025-10-24T08:07:06.328025+00:00,0.500000,-1.282120,
2025-10-24T08:07:06.333025+00:00,0.505000,-1.257800,
2025-10-24T08:07:06.338025+00:00,0.510000,-1.235760,
2025-10-24T08:07:06.343025+00:00,0.515000,-1.215620,
2025-10-24T08:07:06.348025+00:00,0.520000,-1.195100,
2025-10-24T08:07:06.353025+00:00,0.525000,-1.176100,
2025-10-24T08:07:06.358025+00:00,0.530000,-1.158240,
2025-10-24T08:07:06.363025+00:00,0.535000,-1.139240,
2025-10-24T08:07:06.368025+00:00,0.540000,-1.120240,
2025-10-24T08:07:06.373025+00:00,0.545000,-1.100480,
2025-10-24T08:07:06.378025+00:00,0.550000,-1.080340,
2025-10-24T08:07:06.383025+00:00,0.555000,-1.058680,
2025-10-24T08:07:06.388025+00:00,0.560000,-1.040440,
2025-10-24T08:07:06.393025+00:00,0.565000,-1.024100,
2025-10-24T08:07:06.398025+00:00,0.570000,-1.007760,
2025-10-24T08:07:06.403025+00:00,0.575000,-0.990280,
2025-10-24T08:07:06.408025+00:00,0.580000,-0.974700,
2025-10-24T08:07:06.413025+00:00,0.585000,-0.959120,
2025-10-24T08:07:06.418025+00:00,0.590000,-0.943540,
2025-10-24T08:07:06.423025+00:00,0.595000,-0.926440,
2025-10-24T08:07:06.428025+00:00,0.600000,-0.908200,
2025-10-24T08:07:06.433025+00:00,0.605000,-0.891860,
2025-10-24T08:07:06.438025+00:00,0.610000,-0.877800,
2025-10-24T08:07:06.443025+00:00,0.615000,-0.862600,
2025-10-24T08:07:06.448025+00:00,0.620000,-0.848540,
2025-10-24T08:07:06.453025+00:00,0.625000,-0.834860,
2025-10-24T08:07:06.458025+00:00,0.630000,-0.818900,
2025-10-24T08:07:06.463025+00:00,0.635000,-0.804080,
2025-10-24T08:07:06.468025+00:00,0.640000,-0.792680,
2025-10-24T08:07:06.473025+00:00,0.645000,-0.783560,
2025-10-24T08:07:06.478025+00:00,0.650000,-0.772160,
2025-10-24T08:07:06.483025+00:00,0.655000,-0.760380,
2025-10-24T08:07:06.488025+00:00,0.660000,-0.745180,
2025-10-24T08:07:06.493025+00:00,0.665000,-0.731120,
2025-10-24T08:07:06.498025+00:00,0.670000,-0.718580,
2025-10-24T08:07:06.503025+00:00,0.675000,-0.706800,
2025-10-24T08:07:06.508025+00:00,0.680000,-0.695020,
2025-10-24T08:07:06.513025+00:00,0.685000,-0.682480,
2025-10-24T08:07:06.518025+00:00,0.690000,-0.670320,
2025-10-24T08:07:06.523025+00:00,0.695000,-0.658160,
2025-10-24T08:07:06.528025+00:00,0.700000,-0.647140,
2025-10-24T08:07:06.533025+00:00,0.705000,-0.636880,
2025-10-24T08:07:06.538025+00:00,0.710000,-0.626240,
2025-10-24T08:07:06.543025+00:00,0.715000,-0.615980,
2025-10-24T08:07:06.548025+00:00,0.720000,-0.606100,
2025-10-24T08:07:06.553025+00:00,0.725000,-0.596220,
2025-10-24T08:07:06.558025+00:00,0.730000,-0.586340,
2025-10-24T08:07:06.563025+00:00,0.735000,-0.577220,
2025-10-24T08:07:06.568025+00:00,0.740000,-0.568480,
2025-10-24T08:07:06.573025+00:00,0.745000,-0.558980,
2025-10-24T08:07:06.578025+00:00,0.750000,-0.549860,
2025-10-24T08:07:06.583025+00:00,0.755000,-0.539600,
2025-10-24T08:07:06.588025+00:00,0.760000,-0.529340,
2025-10-24T08:07:06.593025+00:00,0.765000,-0.520220,
2025-10-24T08:07:06.598025+00:00,0.770000,-0.514140,
2025-10-24T08:07:06.603025+00:00,0.775000,-0.506920,
2025-10-24T08:07:06.608025+00:00,0.780000,-0.498560,
2025-10-24T08:07:06.613025+00:00,0.785000,-0.487920,
2025-10-24T08:07:06.618025+00:00,0.790000,-0.477280,
2025-10-24T08:07:06.623025+00:00,0.795000,-0.470820,
2025-10-24T08:07:06.628025+00:00,0.800000,-0.464360,
2025-10-24T08:07:06.633025+00:00,0.805000,-0.457520,
2025-10-24T08:07:06.638025+00:00,0.810000,-0.451060,
2025-10-24T08:07:06.643025+00:00,0.815000,-0.442700,
2025-10-24T08:07:06.648025+00:00,0.820000,-0.432820,
2025-10-24T08:07:06.653025+00:00,0.825000,-0.422940,
2025-10-24T08:07:06.658025+00:00,0.830000,-0.414200,
2025-10-24T08:07:06.663025+00:00,0.835000,-0.408120,
2025-10-24T08:07:06.668025+00:00,0.840000,-0.403560,
2025-10-24T08:07:06.673025+00:00,0.845000,-0.399760,
2025-10-24T08:07:06.678025+00:00,0.850000,-0.395960,
2025-10-24T08:07:06.683025+00:00,0.855000,-0.390640,
2025-10-24T08:07:06.688025+00:00,0.860000,-0.382280,
2025-10-24T08:07:06.693025+00:00,0.865000,-0.370500,
2025-10-24T08:07:06.698025+00:00,0.870000,-0.358340,
2025-10-24T08:07:06.703025+00:00,0.875000,-0.348460,
2025-10-24T08:07:06.708025+00:00,0.880000,-0.344280,
2025-10-24T08:07:06.713025+00:00,0.885000,-0.343140,
2025-10-24T08:07:06.718025+00:00,0.890000,-0.344660,
2025-10-24T08:07:06.723025+00:00,0.895000,-0.345040,
2025-10-24T08:07:06.728025+00:00,0.900000,-0.343520,
2025-10-24T08:07:06.733025+00:00,0.905000,-0.342380,
2025-10-24T08:07:06.738025+00:00,0.910000,-0.338960,
2025-10-24T08:07:06.743025+00:00,0.915000,-0.334780,
2025-10-24T08:07:06.748025+00:00,0.920000,-0.329080,
2025-10-24T08:07:06.753025+00:00,0.925000,-0.319960,
2025-10-24T08:07:06.758025+00:00,0.930000,-0.311220,
2025-10-24T08:07:06.763025+00:00,0.935000,-0.302480,
2025-10-24T08:07:06.768025+00:00,0.940000,-0.294880,
2025-10-24T08:07:06.773025+00:00,0.945000,-0.291080,
2025-10-24T08:07:06.778025+00:00,0.950000,-0.296020,
2025-10-24T08:07:06.783025+00:00,0.955000,-0.294120,
2025-10-24T08:07:06.788025+00:00,0.960000,-0.253840,
2025-10-24T08:07:06.793025+00:00,0.965000,-0.173280,
2025-10-24T08:07:06.798025+00:00,0.970000,-0.088160,
2025-10-24T08:07:06.803025+00:00,0.975000,-0.042180,
2025-10-24T08:07:06.808025+00:00,0.980000,-0.023560,
2025-10-24T08:07:06.813025+00:00,0.985000,0.029640,
2025-10-24T08:07:06.818025+00:00,0.990000,0.123120,
2025-10-24T08:07:06.823025+00:00,0.995000,0.162260,
2025-10-24T08:07:06.828025+00:00,1.000000,0.034960,
2025-10-24T08:07:06.833025+00:00,1.005000,-0.255360,
2025-10-24T08:07:06.838025+00:00,1.010000,-0.564300,
2025-10-24T08:07:06.843025+00:00,1.015000,-0.734920,
2025-10-24T08:07:06.848025+00:00,1.020000,-0.726560,
2025-10-24T08:07:06.853025+00:00,1.025000,-0.613320,
2025-10-24T08:07:06.858025+00:00,1.030000,-0.486400,
2025-10-24T08:07:06.863025+00:00,1.035000,-0.379620,
2025-10-24T08:07:06.868025+00:00,1.040000,-0.295640,
2025-10-24T08:07:06.873025+00:00,1.045000,-0.232180,
2025-10-24T08:07:06.878025+00:00,1.050000,-0.193800,
2025-10-24T08:07:06.883025+00:00,1.055000,-0.178220,
2025-10-24T08:07:06.888025+00:00,1.060000,-0.174420,
2025-10-24T08:07:06.893025+00:00,1.065000,-0.172140,
2025-10-24T08:07:06.898025+00:00,1.070000,-0.169860,
2025-10-24T08:07:06.903025+00:00,1.075000,-0.167200,
2025-10-24T08:07:06.908025+00:00,1.080000,-0.163780,
2025-10-24T08:07:06.913025+00:00,1.085000,-0.161500,
2025-10-24T08:07:06.918025+00:00,1.090000,-0.158840,
2025-10-24T08:07:06.923025+00:00,1.095000,-0.157320,
2025-10-24T08:07:06.928025+00:00,1.100000,-0.156180,
2025-10-24T08:07:06.933025+00:00,1.105000,-0.153140,
2025-10-24T08:07:06.938025+00:00,1.110000,-0.148960,
2025-10-24T08:07:06.943025+00:00,1.115000,-0.144780,
2025-10-24T08:07:06.948025+00:00,1.120000,-0.142880,
2025-10-24T08:07:06.953025+00:00,1.125000,-0.140600,
2025-10-24T08:07:06.958025+00:00,1.130000,-0.138320,
2025-10-24T08:07:06.963025+00:00,1.135000,-0.134140,
2025-10-24T08:07:06.968025+00:00,1.140000,-0.128440,
2025-10-24T08:07:06.973025+00:00,1.145000,-0.122740,
2025-10-24T08:07:06.978025+00:00,1.150000,-0.114760,
2025-10-24T08:07:06.983025+00:00,1.155000,-0.107920,
2025-10-24T08:07:06.988025+00:00,1.160000,-0.104880,
2025-10-24T08:07:06.993025+00:00,1.165000,-0.104120,
2025-10-24T08:07:06.998025+00:00,1.170000,-0.101840,
2025-10-24T08:07:07.003025+00:00,1.175000,-0.097660,
2025-10-24T08:07:07.008025+00:00,1.180000,-0.090820,
2025-10-24T08:07:07.013025+00:00,1.185000,-0.085120,
2025-10-24T08:07:07.018025+00:00,1.190000,-0.079800,
2025-10-24T08:07:07.023025+00:00,1.195000,-0.072960,
2025-10-24T08:07:07.028025+00:00,1.200000,-0.068400,
2025-10-24T08:07:07.033025+00:00,1.205000,-0.066120,
2025-10-24T08:07:07.038025+00:00,1.210000,-0.064980,
2025-10-24T08:07:07.043025+00:00,1.215000,-0.066120,
2025-10-24T08:07:07.048025+00:00,1.220000,-0.068780,
2025-10-24T08:07:07.053025+00:00,1.225000,-0.074480,
2025-10-24T08:07:07.058025+00:00,1.230000,-0.080940,
2025-10-24T08:07:07.063025+00:00,1.235000,-0.088540,
2025-10-24T08:07:07.068025+00:00,1.240000,-0.097280,
2025-10-24T08:07:07.073025+00:00,1.245000,-0.110200,
2025-10-24T08:07:07.078025+00:00,1.250000,-0.126540,
2025-10-24T08:07:07.083025+00:00,1.255000,-0.144780,
2025-10-24T08:07:07.088025+00:00,1.260000,-0.167200,
2025-10-24T08:07:07.093025+00:00,1.265000,-0.192280,
2025-10-24T08:07:07.098025+00:00,1.270000,-0.219640,
2025-10-24T08:07:07.103025+00:00,1.275000,-0.243200,
2025-10-24T08:07:07.108025+00:00,1.280000,-0.260680,
2025-10-24T08:07:07.113025+00:00,1.285000,-0.267900,
2025-10-24T08:07:07.118025+00:00,1.290000,-0.270180,
2025-10-24T08:07:07.123025+00:00,1.295000,-0.265620,
2025-10-24T08:07:07.128025+00:00,1.300000,-0.258020,
2025-10-24T08:07:07.133025+00:00,1.305000,-0.246240,
2025-10-24T08:07:07.138025+00:00,1.310000,-0.228380,
2025-10-24T08:07:07.143025+00:00,1.315000,-0.211280,
2025-10-24T08:07:07.148025+00:00,1.320000,-0.195320,
2025-10-24T08:07:07.153025+00:00,1.325000,-0.177840,
2025-10-24T08:07:07.158025+00:00,1.330000,-0.160360,
2025-10-24T08:07:07.163025+00:00,1.335000,-0.145160,
2025-10-24T08:07:07.168025+00:00,1.340000,-0.134140,
2025-10-24T08:07:07.173025+00:00,1.345000,-0.124640,
2025-10-24T08:07:07.178025+00:00,1.350000,-0.114760,
2025-10-24T08:07:07.183025+00:00,1.355000,-0.106780,
2025-10-24T08:07:07.188025+00:00,1.360000,-0.100320,
2025-10-24T08:07:07.193025+00:00,1.365000,-0.097660,
2025-10-24T08:07:07.198025+00:00,1.370000,-0.096900,
2025-10-24T08:07:07.203025+00:00,1.375000,-0.093100,
2025-10-24T08:07:07.208025+00:00,1.380000,-0.086260,
2025-10-24T08:07:07.213025+00:00,1.385000,-0.080180,
2025-10-24T08:07:07.218025+00:00,1.390000,-0.077140,
2025-10-24T08:07:07.223025+00:00,1.395000,-0.075240,
2025-10-24T08:07:07.228025+00:00,1.400000,-0.074480,
2025-10-24T08:07:07.233025+00:00,1.405000,-0.074480,
2025-10-24T08:07:07.238025+00:00,1.410000,-0.072580,
2025-10-24T08:07:07.243025+00:00,1.415000,-0.069160,
2025-10-24T08:07:07.248025+00:00,1.420000,-0.065360,
2025-10-24T08:07:07.253025+00:00,1.425000,-0.061940,
2025-10-24T08:07:07.258025+00:00,1.430000,-0.064220,
2025-10-24T08:07:07.263025+00:00,1.435000,-0.066880,
2025-10-24T08:07:07.268025+00:00,1.440000,-0.068400,
2025-10-24T08:07:07.273025+00:00,1.445000,-0.068400,
2025-10-24T08:07:07.278025+00:00,1.450000,-0.067640,
2025-10-24T08:07:07.283025+00:00,1.455000,-0.066120,
2025-10-24T08:07:07.288025+00:00,1.460000,-0.066880,
2025-10-24T08:07:07.293025+00:00,1.465000,-0.068020,
2025-10-24T08:07:07.298025+00:00,1.470000,-0.068780,
2025-10-24T08:07:07.303025+00:00,1.475000,-0.068780,
2025-10-24T08:07:07.308025+00:00,1.480000,-0.066500,
2025-10-24T08:07:07.313025+00:00,1.485000,-0.066120,
2025-10-24T08:07:07.318025+00:00,1.490000,-0.066500,
2025-10-24T08:07:07.323025+00:00,1.495000,-0.068020,
2025-10-24T08:07:07.328025+00:00,1.500000,-0.069160,
2025-10-24T08:07:07.333025+00:00,1.505000,-0.069920,
2025-10-24T08:07:07.338025+00:00,1.510000,-0.068780,
2025-10-24T08:07:07.343025+00:00,1.515000,-0.065360,
2025-10-24T08:07:07.348025+00:00,1.520000,-0.062700,
2025-10-24T08:07:07.353025+00:00,1.525000,-0.064600,
2025-10-24T08:07:07.358025+00:00,1.530000,-0.068020,
2025-10-24T08:07:07.363025+00:00,1.535000,-0.069920,
2025-10-24T08:07:07.368025+00:00,1.540000,-0.066500,
2025-10-24T08:07:07.373025+00:00,1.545000,-0.061560,
2025-10-24T08:07:07.378025+00:00,1.550000,-0.059280,
2025-10-24T08:07:07.383025+00:00,1.555000,-0.060420,
2025-10-24T08:07:07.388025+00:00,1.560000,-0.061560,
2025-10-24T08:07:07.393025+00:00,1.565000,-0.061180,
2025-10-24T08:07:07.398025+00:00,1.570000,-0.058900,
2025-10-24T08:07:07.403025+00:00,1.575000,-0.057380,
2025-10-24T08:07:07.408025+00:00,1.580000,-0.056620,
2025-10-24T08:07:07.413025+00:00,1.585000,-0.057000,
2025-10-24T08:07:07.418025+00:00,1.590000,-0.057000,
2025-10-24T08:07:07.423025+00:00,1.595000,-0.055860,
2025-10-24T08:07:07.428025+00:00,1.600000,-0.055860,
2025-10-24T08:07:07.433025+00:00,1.605000,-0.054340,
2025-10-24T08:07:07.438025+00:00,1.610000,-0.052440,
2025-10-24T08:07:07.443025+00:00,1.615000,-0.050920,
2025-10-24T08:07:07.448025+00:00,1.620000,-0.050160,
2025-10-24T08:07:07.453025+00:00,1.625000,-0.049020,
2025-10-24T08:07:07.458025+00:00,1.630000,-0.048640,
2025-10-24T08:07:07.463025+00:00,1.635000,-0.049400,
2025-10-24T08:07:07.468025+00:00,1.640000,-0.049400,
2025-10-24T08:07:07.473025+00:00,1.645000,-0.048640,
2025-10-24T08:07:07.478025+00:00,1.650000,-0.047120,
2025-10-24T08:07:07.483025+00:00,1.655000,-0.044840,
2025-10-24T08:07:07.488025+00:00,1.660000,-0.045220,
2025-10-24T08:07:07.493025+00:00,1.665000,-0.046360,
2025-10-24T08:07:07.498025+00:00,1.670000,-0.047120,
2025-10-24T08:07:07.503025+00:00,1.675000,-0.047500,
2025-10-24T08:07:07.508025+00:00,1.680000,-0.048260,
2025-10-24T08:07:07.513025+00:00,1.685000,-0.047500,
2025-10-24T08:07:07.518025+00:00,1.690000,-0.047880,
2025-10-24T08:07:07.523025+00:00,1.695000,-0.047120,
2025-10-24T08:07:07.528025+00:00,1.700000,-0.047500,
2025-10-24T08:07:07.533025+00:00,1.705000,-0.047880,
2025-10-24T08:07:07.538025+00:00,1.710000,-0.047880,
2025-10-24T08:07:07.543025+00:00,1.715000,-0.045220,
2025-10-24T08:07:07.548025+00:00,1.720000,-0.043700,
2025-10-24T08:07:07.553025+00:00,1.725000,-0.043700,
2025-10-24T08:07:07.558025+00:00,1.730000,-0.045220,
2025-10-24T08:07:07.563025+00:00,1.735000,-0.046740,
2025-10-24T08:07:07.568025+00:00,1.740000,-0.047120,
2025-10-24T08:07:07.573025+00:00,1.745000,-0.047120,
2025-10-24T08:07:07.578025+00:00,1.750000,-0.047120,
2025-10-24T08:07:07.583025+00:00,1.755000,-0.046740,
2025-10-24T08:07:07.588025+00:00,1.760000,-0.044460,
2025-10-24T08:07:07.593025+00:00,1.765000,-0.042180,
2025-10-24T08:07:07.598025+00:00,1.770000,-0.041420,
2025-10-24T08:07:07.603025+00:00,1.775000,-0.042940,
2025-10-24T08:07:07.608025+00:00,1.780000,-0.044840,
2025-10-24T08:07:07.613025+00:00,1.785000,-0.046360,
2025-10-24T08:07:07.618025+00:00,1.790000,-0.045600,
2025-10-24T08:07:07.623025+00:00,1.795000,-0.044840,
2025-10-24T08:07:07.628025+00:00,1.800000,-0.044080,
2025-10-24T08:07:07.633025+00:00,1.805000,-0.043320,
2025-10-24T08:07:07.638025+00:00,1.810000,-0.044460,
2025-10-24T08:07:07.643025+00:00,1.815000,-0.045600,
2025-10-24T08:07:07.648025+00:00,1.820000,-0.048260,
2025-10-24T08:07:07.653025+00:00,1.825000,-0.047880,
2025-10-24T08:07:07.658025+00:00,1.830000,-0.044460,
2025-10-24T08:07:07.663025+00:00,1.835000,-0.042940,
2025-10-24T08:07:07.668025+00:00,1.840000,-0.041420,
2025-10-24T08:07:07.673025+00:00,1.845000,-0.042560,
2025-10-24T08:07:07.678025+00:00,1.850000,-0.043700,
2025-10-24T08:07:07.683025+00:00,1.855000,-0.043320,
2025-10-24T08:07:07.688025+00:00,1.860000,-0.042560,
2025-10-24T08:07:07.693025+00:00,1.865000,-0.043700,
2025-10-24T08:07:07.698025+00:00,1.870000,-0.044460,
2025-10-24T08:07:07.703025+00:00,1.875000,-0.045220,
2025-10-24T08:07:07.708025+00:00,1.880000,-0.044460,
2025-10-24T08:07:07.713025+00:00,1.885000,-0.044460,
2025-10-24T08:07:07.718025+00:00,1.890000,-0.044460,
2025-10-24T08:07:07.723025+00:00,1.895000,-0.043320,
2025-10-24T08:07:07.728025+00:00,1.900000,-0.041800,
2025-10-24T08:07:07.733025+00:00,1.905000,-0.041420,
2025-10-24T08:07:07.738025+00:00,1.910000,-0.041800,
2025-10-24T08:07:07.743025+00:00,1.915000,-0.041040,
2025-10-24T08:07:07.748025+00:00,1.920000,-0.035720,
2025-10-24T08:07:07.753025+00:00,1.925000,-0.031920,
2025-10-24T08:07:07.758025+00:00,1.930000,-0.029640,
2025-10-24T08:07:07.763025+00:00,1.935000,-0.029640,
2025-10-24T08:07:07.768025+00:00,1.940000,-0.033820,
2025-10-24T08:07:07.773025+00:00,1.945000,-0.039140,
2025-10-24T08:07:07.778025+00:00,1.950000,-0.041800,
2025-10-24T08:07:07.783025+00:00,1.955000,-0.043320,
2025-10-24T08:07:07.788025+00:00,1.960000,-0.039520,
2025-10-24T08:07:07.793025+00:00,1.965000,-0.033060,
2025-10-24T08:07:07.798025+00:00,1.970000,-0.025460,
2025-10-24T08:07:07.803025+00:00,1.975000,-0.022420,
2025-10-24T08:07:07.808025+00:00,1.980000,-0.026600,
2025-10-24T08:07:07.813025+00:00,1.985000,-0.033820,
2025-10-24T08:07:07.818025+00:00,1.990000,-0.042180,
2025-10-24T08:07:07.823025+00:00,1.995000,-0.047500,
2025-10-24T08:07:07.828025+00:00,2.000000,-0.052440,
2025-10-24T08:07:07.833025+00:00,2.005000,-0.057760,
2025-10-24T08:07:07.838025+00:00,2.010000,-0.058520,
2025-10-24T08:07:07.843025+00:00,2.015000,-0.056240,
2025-10-24T08:07:07.848025+00:00,2.020000,-0.050160,
2025-10-24T08:07:07.853025+00:00,2.025000,-0.045980,
2025-10-24T08:07:07.858025+00:00,2.030000,-0.044840,
2025-10-24T08:07:07.863025+00:00,2.035000,-0.043700,
2025-10-24T08:07:07.868025+00:00,2.040000,-0.039140,
2025-10-24T08:07:07.873025+00:00,2.045000,-0.042180,
2025-10-24T08:07:07.878025+00:00,2.050000,-0.053580,
2025-10-24T08:07:07.883025+00:00,2.055000,-0.044460,
2025-10-24T08:07:07.888025+00:00,2.060000,0.011020,
2025-10-24T08:07:07.893025+00:00,2.065000,0.100700,
2025-10-24T08:07:07.898025+00:00,2.070000,0.170620,
2025-10-24T08:07:07.903025+00:00,2.075000,0.192660,
2025-10-24T08:07:07.908025+00:00,2.080000,0.209000,
2025-10-24T08:07:07.913025+00:00,2.085000,0.270180,
2025-10-24T08:07:07.918025+00:00,2.090000,0.339720,
2025-10-24T08:07:07.923025+00:00,2.095000,0.297920,
2025-10-24T08:07:07.928025+00:00,2.100000,0.076380,
2025-10-24T08:07:07.933025+00:00,2.105000,-0.241680,
2025-10-24T08:07:07.938025+00:00,2.110000,-0.489060,
2025-10-24T08:07:07.943025+00:00,2.115000,-0.552900,
2025-10-24T08:07:07.948025+00:00,2.120000,-0.466640,
2025-10-24T08:07:07.953025+00:00,2.125000,-0.334020,
2025-10-24T08:07:07.958025+00:00,2.130000,-0.223060,
2025-10-24T08:07:07.963025+00:00,2.135000,-0.139840,
2025-10-24T08:07:07.968025+00:00,2.140000,-0.071440,
2025-10-24T08:07:07.973025+00:00,2.145000,-0.023180,
2025-10-24T08:07:07.978025+00:00,2.150000,-0.001140,
2025-10-24T08:07:07.983025+00:00,2.155000,0.002660,
2025-10-24T08:07:07.988025+00:00,2.160000,0.000380,
2025-10-24T08:07:07.993025+00:00,2.165000,-0.001140,
2025-10-24T08:07:07.998025+00:00,2.170000,-0.003040,
2025-10-24T08:07:08.003025+00:00,2.175000,-0.006080,
2025-10-24T08:07:08.008025+00:00,2.180000,-0.009500,
2025-10-24T08:07:08.013025+00:00,2.185000,-0.011780,
2025-10-24T08:07:08.018025+00:00,2.190000,-0.012920,
2025-10-24T08:07:08.023025+00:00,2.195000,-0.012540,
2025-10-24T08:07:08.028025+00:00,2.200000,-0.011780,
2025-10-24T08:07:08.033025+00:00,2.205000,-0.011400,
2025-10-24T08:07:08.038025+00:00,2.210000,-0.011400,
2025-10-24T08:07:08.043025+00:00,2.215000,-0.011780,
2025-10-24T08:07:08.048025+00:00,2.220000,-0.010640,
2025-10-24T08:07:08.053025+00:00,2.225000,-0.006840,
2025-10-24T08:07:08.058025+00:00,2.230000,-0.004180,
2025-10-24T08:07:08.063025+00:00,2.235000,-0.005700,
2025-10-24T08:07:08.068025+00:00,2.240000,-0.007220,
2025-10-24T08:07:08.073025+00:00,2.245000,-0.004180,
2025-10-24T08:07:08.078025+00:00,2.250000,0.001520,
2025-10-24T08:07:08.083025+00:00,2.255000,0.007600,
2025-10-24T08:07:08.088025+00:00,2.260000,0.010640,
2025-10-24T08:07:08.093025+00:00,2.265000,0.011020,
2025-10-24T08:07:08.098025+00:00,2.270000,0.011020,
2025-10-24T08:07:08.103025+00:00,2.275000,0.015580,
2025-10-24T08:07:08.108025+00:00,2.280000,0.021660,
2025-10-24T08:07:08.113025+00:00,2.285000,0.028500,
2025-10-24T08:07:08.118025+00:00,2.290000,0.031160,
2025-10-24T08:07:08.123025+00:00,2.295000,0.030400,
2025-10-24T08:07:08.128025+00:00,2.300000,0.026980,
2025-10-24T08:07:08.133025+00:00,2.305000,0.025080,
2025-10-24T08:07:08.138025+00:00,2.310000,0.023940,
2025-10-24T08:07:08.143025+00:00,2.315000,0.023940,
2025-10-24T08:07:08.148025+00:00,2.320000,0.021280,
2025-10-24T08:07:08.153025+00:00,2.325000,0.014440,
2025-10-24T08:07:08.158025+00:00,2.330000,0.002660,
2025-10-24T08:07:08.163025+00:00,2.335000,-0.009880,
2025-10-24T08:07:08.168025+00:00,2.340000,-0.023560,
2025-10-24T08:07:08.173025+00:00,2.345000,-0.037620,
2025-10-24T08:07:08.178025+00:00,2.350000,-0.057380,
2025-10-24T08:07:08.183025+00:00,2.355000,-0.079800,
2025-10-24T08:07:08.188025+00:00,2.360000,-0.104120,
2025-10-24T08:07:08.193025+00:00,2.365000,-0.123120,
2025-10-24T08:07:08.198025+00:00,2.370000,-0.141740,
2025-10-24T08:07:08.203025+00:00,2.375000,-0.162640,
2025-10-24T08:07:08.208025+00:00,2.380000,-0.182020,
2025-10-24T08:07:08.213025+00:00,2.385000,-0.198740,
2025-10-24T08:07:08.218025+00:00,2.390000,-0.203300,
2025-10-24T08:07:08.223025+00:00,2.395000,-0.194940,
2025-10-24T08:07:08.228025+00:00,2.400000,-0.178220,
2025-10-24T08:07:08.233025+00:00,2.405000,-0.156940,
2025-10-24T08:07:08.238025+00:00,2.410000,-0.140600,
2025-10-24T08:07:08.243025+00:00,2.415000,-0.126160,
2025-10-24T08:07:08.248025+00:00,2.420000,-0.111340,
2025-10-24T08:07:08.253025+00:00,2.425000,-0.097280,
2025-10-24T08:07:08.258025+00:00,2.430000,-0.084740,
2025-10-24T08:07:08.263025+00:00,2.435000,-0.074860,
2025-10-24T08:07:08.268025+00:00,2.440000,-0.068400,
2025-10-24T08:07:08.273025+00:00,2.445000,-0.064220,
2025-10-24T08:07:08.278025+00:00,2.450000,-0.058900,
2025-10-24T08:07:08.283025+00:00,2.455000,-0.050920,
2025-10-24T08:07:08.288025+00:00,2.460000,-0.042940,
2025-10-24T08:07:08.293025+00:00,2.465000,-0.036480,
2025-10-24T08:07:08.298025+00:00,2.470000,-0.032680,
2025-10-24T08:07:08.303025+00:00,2.475000,-0.029640,
2025-10-24T08:07:08.308025+00:00,2.480000,-0.025080,
2025-10-24T08:07:08.313025+00:00,2.485000,-0.019760,
2025-10-24T08:07:08.318025+00:00,2.490000,-0.015960,
2025-10-24T08:07:08.323025+00:00,2.495000,-0.014820,
2025-10-24T08:07:08.328025+00:00,2.500000,-0.016720,
2025-10-24T08:07:08.333025+00:00,2.505000,-0.020140,
2025-10-24T08:07:08.338025+00:00,2.510000,-0.025460,
2025-10-24T08:07:08.343025+00:00,2.515000,-0.027360,
2025-10-24T08:07:08.348025+00:00,2.520000,-0.023560,
2025-10-24T08:07:08.353025+00:00,2.525000,-0.020140,
2025-10-24T08:07:08.358025+00:00,2.530000,-0.021280,
2025-10-24T08:07:08.363025+00:00,2.535000,-0.028120,
2025-10-24T08:07:08.368025+00:00,2.540000,-0.032300,
2025-10-24T08:07:08.373025+00:00,2.545000,-0.029640,
2025-10-24T08:07:08.378025+00:00,2.550000,-0.021660,
2025-10-24T08:07:08.383025+00:00,2.555000,-0.019000,
2025-10-24T08:07:08.388025+00:00,2.560000,-0.023560,
2025-10-24T08:07:08.393025+00:00,2.565000,-0.030020,
2025-10-24T08:07:08.398025+00:00,2.570000,-0.031540,
2025-10-24T08:07:08.403025+00:00,2.575000,-0.030780,
2025-10-24T08:07:08.408025+00:00,2.580000,-0.031540,
2025-10-24T08:07:08.413025+00:00,2.585000,-0.034200,
2025-10-24T08:07:08.418025+00:00,2.590000,-0.034580,
2025-10-24T08:07:08.423025+00:00,2.595000,-0.036100,
2025-10-24T08:07:08.428025+00:00,2.600000,-0.037620,
2025-10-24T08:07:08.433025+00:00,2.605000,-0.035340,
2025-10-24T08:07:08.438025+00:00,2.610000,-0.028500,
2025-10-24T08:07:08.443025+00:00,2.615000,-0.023180,
2025-10-24T08:07:08.448025+00:00,2.620000,-0.026600,
2025-10-24T08:07:08.453025+00:00,2.625000,-0.036860,
2025-10-24T08:07:08.458025+00:00,2.630000,-0.041420,
2025-10-24T08:07:08.463025+00:00,2.635000,-0.035340,
2025-10-24T08:07:08.468025+00:00,2.640000,-0.024700,
2025-10-24T08:07:08.473025+00:00,2.645000,-0.022040,
2025-10-24T08:07:08.478025+00:00,2.650000,-0.027360,
2025-10-24T08:07:08.483025+00:00,2.655000,-0.034580,
2025-10-24T08:07:08.488025+00:00,2.660000,-0.038000,
2025-10-24T08:07:08.493025+00:00,2.665000,-0.039520,
2025-10-24T08:07:08.498025+00:00,2.670000,-0.037620,
2025-10-24T08:07:08.503025+00:00,2.675000,-0.031160,
2025-10-24T08:07:08.508025+00:00,2.680000,-0.022420,
2025-10-24T08:07:08.513025+00:00,2.685000,-0.020520,
2025-10-24T08:07:08.518025+00:00,2.690000,-0.030400,
2025-10-24T08:07:08.523025+00:00,2.695000,-0.039520,
2025-10-24T08:07:08.528025+00:00,2.700000,-0.037620,
2025-10-24T08:07:08.533025+00:00,2.705000,-0.027740,
2025-10-24T08:07:08.538025+00:00,2.710000,-0.020900,
2025-10-24T08:07:08.543025+00:00,2.715000,-0.024320,
2025-10-24T08:07:08.548025+00:00,2.720000,-0.031920,
2025-10-24T08:07:08.553025+00:00,2.725000,-0.032300,
2025-10-24T08:07:08.558025+00:00,2.730000,-0.028500,
2025-10-24T08:07:08.563025+00:00,2.735000,-0.025080,
2025-10-24T08:07:08.568025+00:00,2.740000,-0.025840,
2025-10-24T08:07:08.573025+00:00,2.745000,-0.030780,
2025-10-24T08:07:08.578025+00:00,2.750000,-0.033440,
2025-10-24T08:07:08.583025+00:00,2.755000,-0.031160,
2025-10-24T08:07:08.588025+00:00,2.760000,-0.024700,
2025-10-24T08:07:08.593025+00:00,2.765000,-0.022040,
2025-10-24T08:07:08.598025+00:00,2.770000,-0.022040,
2025-10-24T08:07:08.603025+00:00,2.775000,-0.024700,
2025-10-24T08:07:08.608025+00:00,2.780000,-0.026220,
2025-10-24T08:07:08.613025+00:00,2.785000,-0.030020,
2025-10-24T08:07:08.618025+00:00,2.790000,-0.034580,
2025-10-24T08:07:08.623025+00:00,2.795000,-0.035720,
2025-10-24T08:07:08.628025+00:00,2.800000,-0.030780,
2025-10-24T08:07:08.633025+00:00,2.805000,-0.026980,
2025-10-24T08:07:08.638025+00:00,2.810000,-0.025080,
2025-10-24T08:07:08.643025+00:00,2.815000,-0.023560,
2025-10-24T08:07:08.648025+00:00,2.820000,-0.025080,
2025-10-24T08:07:08.653025+00:00,2.825000,-0.030780,
2025-10-24T08:07:08.658025+00:00,2.830000,-0.038000,
2025-10-24T08:07:08.663025+00:00,2.835000,-0.035340,
2025-10-24T08:07:08.668025+00:00,2.840000,-0.022800,
2025-10-24T08:07:08.673025+00:00,2.845000,-0.010640,
2025-10-24T08:07:08.678025+00:00,2.850000,-0.014060,
2025-10-24T08:07:08.683025+00:00,2.855000,-0.026220,
2025-10-24T08:07:08.688025+00:00,2.860000,-0.033820,
2025-10-24T08:07:08.693025+00:00,2.865000,-0.028120,
2025-10-24T08:07:08.698025+00:00,2.870000,-0.023180,
2025-10-24T08:07:08.703025+00:00,2.875000,-0.030780,
2025-10-24T08:07:08.708025+00:00,2.880000,-0.044840,
2025-10-24T08:07:08.713025+00:00,2.885000,-0.049020,
2025-10-24T08:07:08.718025+00:00,2.890000,-0.038000,
2025-10-24T08:07:08.723025+00:00,2.895000,-0.020900,
2025-10-24T08:07:08.728025+00:00,2.900000,-0.012160,
2025-10-24T08:07:08.733025+00:00,2.905000,-0.020140,
2025-10-24T08:07:08.738025+00:00,2.910000,-0.035720,
2025-10-24T08:07:08.743025+00:00,2.915000,-0.041040,
2025-10-24T08:07:08.748025+00:00,2.920000,-0.025460,
2025-10-24T08:07:08.753025+00:00,2.925000,-0.000760,
2025-10-24T08:07:08.758025+00:00,2.930000,0.007980,
2025-10-24T08:07:08.763025+00:00,2.935000,-0.015580,
2025-10-24T08:07:08.768025+00:00,2.940000,-0.053580,
2025-10-24T08:07:08.773025+00:00,2.945000,-0.072580,
2025-10-24T08:07:08.778025+00:00,2.950000,-0.060800,
2025-10-24T08:07:08.783025+00:00,2.955000,-0.039140,
2025-10-24T08:07:08.788025+00:00,2.960000,-0.026220,
2025-10-24T08:07:08.793025+00:00,2.965000,-0.021280,
2025-10-24T08:07:08.798025+00:00,2.970000,-0.020140,
2025-10-24T08:07:08.803025+00:00,2.975000,-0.020520,
2025-10-24T08:07:08.808025+00:00,2.980000,-0.018620,
2025-10-24T08:07:08.813025+00:00,2.985000,-0.015960,
2025-10-24T08:07:08.818025+00:00,2.990000,-0.015580,
2025-10-24T08:07:08.823025+00:00,2.995000,-0.024320,
2025-10-24T08:07:08.828025+00:00,3.000000,-0.040660,
2025-10-24T08:07:08.833025+00:00,3.005000,-0.046360,
2025-10-24T08:07:08.838025+00:00,3.010000,-0.037620,
2025-10-24T08:07:08.843025+00:00,3.015000,-0.024320,
2025-10-24T08:07:08.848025+00:00,3.020000,-0.021280,
2025-10-24T08:07:08.853025+00:00,3.025000,-0.025460,
2025-10-24T08:07:08.858025+00:00,3.030000,-0.025840,
2025-10-24T08:07:08.863025+00:00,3.035000,-0.023940,
2025-10-24T08:07:08.868025+00:00,3.040000,-0.025460,
2025-10-24T08:07:08.873025+00:00,3.045000,-0.029640,
2025-10-24T08:07:08.878025+00:00,3.050000,-0.035340,
2025-10-24T08:07:08.883025+00:00,3.055000,-0.043320,
2025-10-24T08:07:08.888025+00:00,3.060000,-0.051680,
2025-10-24T08:07:08.893025+00:00,3.065000,-0.051680,
2025-10-24T08:07:08.898025+00:00,3.070000,-0.041040,
2025-10-24T08:07:08.903025+00:00,3.075000,-0.030020,
2025-10-24T08:07:08.908025+00:00,3.080000,-0.031160,
2025-10-24T08:07:08.913025+00:00,3.085000,-0.044840,
2025-10-24T08:07:08.918025+00:00,3.090000,-0.056620,
2025-10-24T08:07:08.923025+00:00,3.095000,-0.052440,
2025-10-24T08:07:08.928025+00:00,3.100000,-0.033820,
2025-10-24T08:07:08.933025+00:00,3.105000,-0.023940,
2025-10-24T08:07:08.938025+00:00,3.110000,-0.030780,
2025-10-24T08:07:08.943025+00:00,3.115000,-0.018240,
2025-10-24T08:07:08.948025+00:00,3.120000,0.051680,
2025-10-24T08:07:08.953025+00:00,3.125000,0.153520,
2025-10-24T08:07:08.958025+00:00,3.130000,0.220020,
2025-10-24T08:07:08.963025+00:00,3.135000,0.223060,
2025-10-24T08:07:08.968025+00:00,3.140000,0.211280,
2025-10-24T08:07:08.973025+00:00,3.145000,0.232560,
2025-10-24T08:07:08.978025+00:00,3.150000,0.238640,
2025-10-24T08:07:08.983025+00:00,3.155000,0.136420,
2025-10-24T08:07:08.988025+00:00,3.160000,-0.105260,
2025-10-24T08:07:08.993025+00:00,3.165000,-0.384940,
2025-10-24T08:07:08.998025+00:00,3.170000,-0.557080,
2025-10-24T08:07:09.003025+00:00,3.175000,-0.544920,
2025-10-24T08:07:09.008025+00:00,3.180000,-0.398620,
2025-10-24T08:07:09.013025+00:00,3.185000,-0.223440,
2025-10-24T08:07:09.018025+00:00,3.190000,-0.099560,
2025-10-24T08:07:09.023025+00:00,3.195000,-0.039900,
2025-10-24T08:07:09.028025+00:00,3.200000,-0.016340,
2025-10-24T08:07:09.033025+00:00,3.205000,0.002660,
2025-10-24T08:07:09.038025+00:00,3.210000,0.017480,
2025-10-24T08:07:09.043025+00:00,3.215000,0.020520,
2025-10-24T08:07:09.048025+00:00,3.220000,0.011020,
2025-10-24T08:07:09.053025+00:00,3.225000,0.001900,
2025-10-24T08:07:09.058025+00:00,3.230000,0.004180,
2025-10-24T08:07:09.063025+00:00,3.235000,0.012920,
2025-10-24T08:07:09.068025+00:00,3.240000,0.016720,
2025-10-24T08:07:09.073025+00:00,3.245000,0.012920,
2025-10-24T08:07:09.078025+00:00,3.250000,0.004940,
2025-10-24T08:07:09.083025+00:00,3.255000,-0.003800,
2025-10-24T08:07:09.088025+00:00,3.260000,-0.007600,
2025-10-24T08:07:09.093025+00:00,3.265000,-0.003800,
2025-10-24T08:07:09.098025+00:00,3.270000,0.003420,
2025-10-24T08:07:09.103025+00:00,3.275000,0.002660,
2025-10-24T08:07:09.108025+00:00,3.280000,-0.006460,
2025-10-24T08:07:09.113025+00:00,3.285000,-0.010640,
2025-10-24T08:07:09.118025+00:00,3.290000,-0.005700,
2025-10-24T08:07:09.123025+00:00,3.295000,-0.000760,
2025-10-24T08:07:09.128025+00:00,3.300000,-0.003040,
2025-10-24T08:07:09.133025+00:00,3.305000,-0.012160,
2025-10-24T08:07:09.138025+00:00,3.310000,-0.016720,
2025-10-24T08:07:09.143025+00:00,3.315000,-0.012540,
2025-10-24T08:07:09.148025+00:00,3.320000,-0.004940,
2025-10-24T08:07:09.153025+00:00,3.325000,0.003040,
2025-10-24T08:07:09.158025+00:00,3.330000,0.009880,
2025-10-24T08:07:09.163025+00:00,3.335000,0.017480,
2025-10-24T08:07:09.168025+00:00,3.340000,0.020140,
2025-10-24T08:07:09.173025+00:00,3.345000,0.022420,
2025-10-24T08:07:09.178025+00:00,3.350000,0.031160,
2025-10-24T08:07:09.183025+00:00,3.355000,0.048640,
2025-10-24T08:07:09.188025+00:00,3.360000,0.055480,
2025-10-24T08:07:09.193025+00:00,3.365000,0.041040,
2025-10-24T08:07:09.198025+00:00,3.370000,0.014060,
2025-10-24T08:07:09.203025+00:00,3.375000,-0.004940,
2025-10-24T08:07:09.208025+00:00,3.380000,-0.005320,
2025-10-24T08:07:09.213025+00:00,3.385000,0.004180,
2025-10-24T08:07:09.218025+00:00,3.390000,0.008740,
2025-10-24T08:07:09.223025+00:00,3.395000,0.002660,
2025-10-24T08:07:09.228025+00:00,3.400000,-0.013300,
2025-10-24T08:07:09.233025+00:00,3.405000,-0.039900,
2025-10-24T08:07:09.238025+00:00,3.410000,-0.071060,
2025-10-24T08:07:09.243025+00:00,3.415000,-0.097280,
2025-10-24T08:07:09.248025+00:00,3.420000,-0.114760,
2025-10-24T08:07:09.253025+00:00,3.425000,-0.128060,
2025-10-24T08:07:09.258025+00:00,3.430000,-0.145920,
2025-10-24T08:07:09.263025+00:00,3.435000,-0.168720,
2025-10-24T08:07:09.268025+00:00,3.440000,-0.188860,
2025-10-24T08:07:09.273025+00:00,3.445000,-0.199120,
2025-10-24T08:07:09.278025+00:00,3.450000,-0.194940,
2025-10-24T08:07:09.283025+00:00,3.455000,-0.182400,
2025-10-24T08:07:09.288025+00:00,3.460000,-0.168720,
2025-10-24T08:07:09.293025+00:00,3.465000,-0.159980,
2025-10-24T08:07:09.298025+00:00,3.470000,-0.154280,
2025-10-24T08:07:09.303025+00:00,3.475000,-0.140600,
2025-10-24T08:07:09.308025+00:00,3.480000,-0.118940,
2025-10-24T08:07:09.313025+00:00,3.485000,-0.093100,
2025-10-24T08:07:09.318025+00:00,3.490000,-0.076380,
2025-10-24T08:07:09.323025+00:00,3.495000,-0.072580,
2025-10-24T08:07:09.328025+00:00,3.500000,-0.074480,
2025-10-24T08:07:09.333025+00:00,3.505000,-0.066500,
2025-10-24T08:07:09.338025+00:00,3.510000,-0.052060,
2025-10-24T08:07:09.343025+00:00,3.515000,-0.038760,
2025-10-24T08:07:09.348025+00:00,3.520000,-0.036100,
2025-10-24T08:07:09.353025+00:00,3.525000,-0.039520,
2025-10-24T08:07:09.358025+00:00,3.530000,-0.044080,
2025-10-24T08:07:09.363025+00:00,3.535000,-0.042180,
2025-10-24T08:07:09.368025+00:00,3.540000,-0.038760,
2025-10-24T08:07:09.373025+00:00,3.545000,-0.033440,
2025-10-24T08:07:09.378025+00:00,3.550000,-0.026980,
2025-10-24T08:07:09.383025+00:00,3.555000,-0.024700,
2025-10-24T08:07:09.388025+00:00,3.560000,-0.028880,
2025-10-24T08:07:09.393025+00:00,3.565000,-0.032300,
2025-10-24T08:07:09.398025+00:00,3.570000,-0.028880,
2025-10-24T08:07:09.403025+00:00,3.575000,-0.022040,
2025-10-24T08:07:09.408025+00:00,3.580000,-0.020140,
2025-10-24T08:07:09.413025+00:00,3.585000,-0.022800,
2025-10-24T08:07:09.418025+00:00,3.590000,-0.025840,
2025-10-24T08:07:09.423025+00:00,3.595000,-0.025460,
2025-10-24T08:07:09.428025+00:00,3.600000,-0.027360,
2025-10-24T08:07:09.433025+00:00,3.605000,-0.030780,
2025-10-24T08:07:09.438025+00:00,3.610000,-0.033060,
2025-10-24T08:07:09.443025+00:00,3.615000,-0.032300,
2025-10-24T08:07:09.448025+00:00,3.620000,-0.033060,
2025-10-24T08:07:09.453025+00:00,3.625000,-0.035340,
2025-10-24T08:07:09.458025+00:00,3.630000,-0.037240,
2025-10-24T08:07:09.463025+00:00,3.635000,-0.037240,
2025-10-24T08:07:09.468025+00:00,3.640000,-0.035720,
2025-10-24T08:07:09.473025+00:00,3.645000,-0.036480,
2025-10-24T08:07:09.478025+00:00,3.650000,-0.036480,
2025-10-24T08:07:09.483025+00:00,3.655000,-0.036480,
2025-10-24T08:07:09.488025+00:00,3.660000,-0.036100,
2025-10-24T08:07:09.493025+00:00,3.665000,-0.035340,
2025-10-24T08:07:09.498025+00:00,3.670000,-0.034200,
2025-10-24T08:07:09.503025+00:00,3.675000,-0.033440,
2025-10-24T08:07:09.508025+00:00,3.680000,-0.032680,
2025-10-24T08:07:09.513025+00:00,3.685000,-0.033060,
2025-10-24T08:07:09.518025+00:00,3.690000,-0.033440,
2025-10-24T08:07:09.523025+00:00,3.695000,-0.034200,
2025-10-24T08:07:09.528025+00:00,3.700000,-0.036100,
2025-10-24T08:07:09.533025+00:00,3.705000,-0.038000,
2025-10-24T08:07:09.538025+00:00,3.710000,-0.037620,
2025-10-24T08:07:09.543025+00:00,3.715000,-0.031920,
2025-10-24T08:07:09.548025+00:00,3.720000,-0.025840,
2025-10-24T08:07:09.553025+00:00,3.725000,-0.022040,
2025-10-24T08:07:09.558025+00:00,3.730000,-0.023560,
2025-10-24T08:07:09.563025+00:00,3.735000,-0.027360,
2025-10-24T08:07:09.568025+00:00,3.740000,-0.032680,
2025-10-24T08:07:09.573025+00:00,3.745000,-0.035720,
2025-10-24T08:07:09.578025+00:00,3.750000,-0.035720,
2025-10-24T08:07:09.583025+00:00,3.755000,-0.033820,
2025-10-24T08:07:09.588025+00:00,3.760000,-0.034580,
2025-10-24T08:07:09.593025+00:00,3.765000,-0.035340,
2025-10-24T08:07:09.598025+00:00,3.770000,-0.034200,
2025-10-24T08:07:09.603025+00:00,3.775000,-0.031920,
2025-10-24T08:07:09.608025+00:00,3.780000,-0.030400,
2025-10-24T08:07:09.613025+00:00,3.785000,-0.028880,
2025-10-24T08:07:09.618025+00:00,3.790000,-0.028500,
2025-10-24T08:07:09.623025+00:00,3.795000,-0.028120,
2025-10-24T08:07:09.628025+00:00,3.800000,-0.029640,
2025-10-24T08:07:09.633025+00:00,3.805000,-0.031160,
2025-10-24T08:07:09.638025+00:00,3.810000,-0.030020,
2025-10-24T08:07:09.643025+00:00,3.815000,-0.027740,
2025-10-24T08:07:09.648025+00:00,3.820000,-0.027740,
2025-10-24T08:07:09.653025+00:00,3.825000,-0.028120,
2025-10-24T08:07:09.658025+00:00,3.830000,-0.030020,
2025-10-24T08:07:09.663025+00:00,3.835000,-0.028500,
2025-10-24T08:07:09.668025+00:00,3.840000,-0.027740,
2025-10-24T08:07:09.673025+00:00,3.845000,-0.028120,
2025-10-24T08:07:09.678025+00:00,3.850000,-0.031540,
2025-10-24T08:07:09.683025+00:00,3.855000,-0.031540,
2025-10-24T08:07:09.688025+00:00,3.860000,-0.030780,
2025-10-24T08:07:09.693025+00:00,3.865000,-0.030020,
2025-10-24T08:07:09.698025+00:00,3.870000,-0.028880,
2025-10-24T08:07:09.703025+00:00,3.875000,-0.029640,
2025-10-24T08:07:09.708025+00:00,3.880000,-0.031920,
2025-10-24T08:07:09.713025+00:00,3.885000,-0.032300,
2025-10-24T08:07:09.718025+00:00,3.890000,-0.031540,
2025-10-24T08:07:09.723025+00:00,3.895000,-0.028880,
2025-10-24T08:07:09.728025+00:00,3.900000,-0.022040,
2025-10-24T08:07:09.733025+00:00,3.905000,-0.015580,
2025-10-24T08:07:09.738025+00:00,3.910000,-0.014820,
2025-10-24T08:07:09.743025+00:00,3.915000,-0.018620,
2025-10-24T08:07:09.748025+00:00,3.920000,-0.024700,
2025-10-24T08:07:09.753025+00:00,3.925000,-0.027740,
2025-10-24T08:07:09.758025+00:00,3.930000,-0.030020,
2025-10-24T08:07:09.763025+00:00,3.935000,-0.031160,
2025-10-24T08:07:09.768025+00:00,3.940000,-0.031920,
2025-10-24T08:07:09.773025+00:00,3.945000,-0.029640,
2025-10-24T08:07:09.778025+00:00,3.950000,-0.024700,
2025-10-24T08:07:09.783025+00:00,3.955000,-0.019380,
2025-10-24T08:07:09.788025+00:00,3.960000,-0.017100,
2025-10-24T08:07:09.793025+00:00,3.965000,-0.019760,
2025-10-24T08:07:09.798025+00:00,3.970000,-0.027360,
2025-10-24T08:07:09.803025+00:00,3.975000,-0.036100,
2025-10-24T08:07:09.808025+00:00,3.980000,-0.045220,
2025-10-24T08:07:09.813025+00:00,3.985000,-0.048640,
2025-10-24T08:07:09.818025+00:00,3.990000,-0.046360,
2025-10-24T08:07:09.823025+00:00,3.995000,-0.042180,
2025-10-24T08:07:09.828025+00:00,4.000000,-0.039520,
2025-10-24T08:07:09.833025+00:00,4.005000,-0.040660,
2025-10-24T08:07:09.838025+00:00,4.010000,-0.044080,
2025-10-24T08:07:09.843025+00:00,4.015000,-0.039520,
2025-10-24T08:07:09.848025+00:00,4.020000,-0.030020,
2025-10-24T08:07:09.853025+00:00,4.025000,-0.028120,
2025-10-24T08:07:09.858025+00:00,4.030000,-0.037240,
2025-10-24T08:07:09.863025+00:00,4.035000,-0.023940,
2025-10-24T08:07:09.868025+00:00,4.040000,0.044460,
2025-10-24T08:07:09.873025+00:00,4.045000,0.145540,
2025-10-24T08:07:09.878025+00:00,4.050000,0.212800,
2025-10-24T08:07:09.883025+00:00,4.055000,0.221160,
2025-10-24T08:07:09.888025+00:00,4.060000,0.218880,
2025-10-24T08:07:09.893025+00:00,4.065000,0.245860,
2025-10-24T08:07:09.898025+00:00,4.070000,0.249660,
2025-10-24T08:07:09.903025+00:00,4.075000,0.125400,
2025-10-24T08:07:09.908025+00:00,4.080000,-0.140220,
2025-10-24T08:07:09.913025+00:00,4.085000,-0.418380,
2025-10-24T08:07:09.918025+00:00,4.090000,-0.549480,
2025-10-24T08:07:09.923025+00:00,4.095000,-0.494000,
2025-10-24T08:07:09.928025+00:00,4.100000,-0.341240,
2025-10-24T08:07:09.933025+00:00,4.105000,-0.200640,
2025-10-24T08:07:09.938025+00:00,4.110000,-0.112100,
2025-10-24T08:07:09.943025+00:00,4.115000,-0.053580,
2025-10-24T08:07:09.948025+00:00,4.120000,-0.005320,
2025-10-24T08:07:09.953025+00:00,4.125000,0.025840,
2025-10-24T08:07:09.958025+00:00,4.130000,0.033060,
2025-10-24T08:07:09.963025+00:00,4.135000,0.028880,
2025-10-24T08:07:09.968025+00:00,4.140000,0.021280,
2025-10-24T08:07:09.973025+00:00,4.145000,0.014820,
2025-10-24T08:07:09.978025+00:00,4.150000,0.009500,
2025-10-24T08:07:09.983025+00:00,4.155000,0.005320,
2025-10-24T08:07:09.988025+00:00,4.160000,0.001900,
2025-10-24T08:07:09.993025+00:00,4.165000,-0.000760,
2025-10-24T08:07:09.998025+00:00,4.170000,-0.001520,
2025-10-24T08:07:10.003025+00:00,4.175000,-0.000760,
2025-10-24T08:07:10.008025+00:00,4.180000,-0.000380,
2025-10-24T08:07:10.013025+00:00,4.185000,-0.001900,
2025-10-24T08:07:10.018025+00:00,4.190000,-0.004560,
2025-10-24T08:07:10.023025+00:00,4.195000,-0.005700,
2025-10-24T08:07:10.028025+00:00,4.200000,-0.004180,
2025-10-24T08:07:10.033025+00:00,4.205000,-0.003420,
2025-10-24T08:07:10.038025+00:00,4.210000,-0.004560,
2025-10-24T08:07:10.043025+00:00,4.215000,-0.006080,
2025-10-24T08:07:10.048025+00:00,4.220000,-0.002280,
2025-10-24T08:07:10.053025+00:00,4.225000,0.003040,
2025-10-24T08:07:10.058025+00:00,4.230000,0.007220,
2025-10-24T08:07:10.063025+00:00,4.235000,0.008740,
2025-10-24T08:07:10.068025+00:00,4.240000,0.009120,
2025-10-24T08:07:10.073025+00:00,4.245000,0.010640,
2025-10-24T08:07:10.078025+00:00,4.250000,0.012540,
2025-10-24T08:07:10.083025+00:00,4.255000,0.012920,
2025-10-24T08:07:10.088025+00:00,4.260000,0.015960,
2025-10-24T08:07:10.093025+00:00,4.265000,0.021280,
2025-10-24T08:07:10.098025+00:00,4.270000,0.027360,
2025-10-24T08:07:10.103025+00:00,4.275000,0.028500,
2025-10-24T08:07:10.108025+00:00,4.280000,0.028120,
2025-10-24T08:07:10.113025+00:00,4.285000,0.029640,
2025-10-24T08:07:10.118025+00:00,4.290000,0.031920,
2025-10-24T08:07:10.123025+00:00,4.295000,0.029640,
2025-10-24T08:07:10.128025+00:00,4.300000,0.019380,
2025-10-24T08:07:10.133025+00:00,4.305000,0.005700,
2025-10-24T08:07:10.138025+00:00,4.310000,-0.006080,
2025-10-24T08:07:10.143025+00:00,4.315000,-0.015580,
2025-10-24T08:07:10.148025+00:00,4.320000,-0.023940,
2025-10-24T08:07:10.153025+00:00,4.325000,-0.039900,
2025-10-24T08:07:10.158025+00:00,4.330000,-0.067260,
2025-10-24T08:07:10.163025+00:00,4.335000,-0.099180,
2025-10-24T08:07:10.168025+00:00,4.340000,-0.127300,
2025-10-24T08:07:10.173025+00:00,4.345000,-0.147060,
2025-10-24T08:07:10.178025+00:00,4.350000,-0.159600,
2025-10-24T08:07:10.183025+00:00,4.355000,-0.171760,
2025-10-24T08:07:10.188025+00:00,4.360000,-0.183160,
2025-10-24T08:07:10.193025+00:00,4.365000,-0.191900,
2025-10-24T08:07:10.198025+00:00,4.370000,-0.188480,
2025-10-24T08:07:10.203025+00:00,4.375000,-0.173660,
2025-10-24T08:07:10.208025+00:00,4.380000,-0.153900,
2025-10-24T08:07:10.213025+00:00,4.385000,-0.137560,
2025-10-24T08:07:10.218025+00:00,4.390000,-0.126540,
2025-10-24T08:07:10.223025+00:00,4.395000,-0.118560,
2025-10-24T08:07:10.228025+00:00,4.400000,-0.110200,
2025-10-24T08:07:10.233025+00:00,4.405000,-0.101080,
2025-10-24T08:07:10.238025+00:00,4.410000,-0.088920,
2025-10-24T08:07:10.243025+00:00,4.415000,-0.077520,
2025-10-24T08:07:10.248025+00:00,4.420000,-0.067640,
2025-10-24T08:07:10.253025+00:00,4.425000,-0.058140,
2025-10-24T08:07:10.258025+00:00,4.430000,-0.049400,
2025-10-24T08:07:10.263025+00:00,4.435000,-0.039520,
2025-10-24T08:07:10.268025+00:00,4.440000,-0.033820,
2025-10-24T08:07:10.273025+00:00,4.445000,-0.031920,
2025-10-24T08:07:10.278025+00:00,4.450000,-0.031160,
2025-10-24T08:07:10.283025+00:00,4.455000,-0.030020,
2025-10-24T08:07:10.288025+00:00,4.460000,-0.026220,
2025-10-24T08:07:10.293025+00:00,4.465000,-0.022800,
2025-10-24T08:07:10.298025+00:00,4.470000,-0.020900,
2025-10-24T08:07:10.303025+00:00,4.475000,-0.023940,
2025-10-24T08:07:10.308025+00:00,4.480000,-0.027740,
2025-10-24T08:07:10.313025+00:00,4.485000,-0.028120,
2025-10-24T08:07:10.318025+00:00,4.490000,-0.024700,
2025-10-24T08:07:10.323025+00:00,4.495000,-0.020900,
2025-10-24T08:07:10.328025+00:00,4.500000,-0.021280,
2025-10-24T08:07:10.333025+00:00,4.505000,-0.024320,
2025-10-24T08:07:10.338025+00:00,4.510000,-0.028500,
2025-10-24T08:07:10.343025+00:00,4.515000,-0.030780,
2025-10-24T08:07:10.348025+00:00,4.520000,-0.028880,
2025-10-24T08:07:10.353025+00:00,4.525000,-0.027360,
2025-10-24T08:07:10.358025+00:00,4.530000,-0.026980,
2025-10-24T08:07:10.363025+00:00,4.535000,-0.030400,
2025-10-24T08:07:10.368025+00:00,4.540000,-0.033060,
2025-10-24T08:07:10.373025+00:00,4.545000,-0.034580,
2025-10-24T08:07:10.378025+00:00,4.550000,-0.035720,
2025-10-24T08:07:10.383025+00:00,4.555000,-0.037240,
2025-10-24T08:07:10.388025+00:00,4.560000,-0.038380,
2025-10-24T08:07:10.393025+00:00,4.565000,-0.039900,
2025-10-24T08:07:10.398025+00:00,4.570000,-0.041040,
2025-10-24T08:07:10.403025+00:00,4.575000,-0.041420,
2025-10-24T08:07:10.408025+00:00,4.580000,-0.038380,
2025-10-24T08:07:10.413025+00:00,4.585000,-0.034960,
2025-10-24T08:07:10.418025+00:00,4.590000,-0.031920,
2025-10-24T08:07:10.423025+00:00,4.595000,-0.033820,
2025-10-24T08:07:10.428025+00:00,4.600000,-0.037620,
2025-10-24T08:07:10.433025+00:00,4.605000,-0.037620,
2025-10-24T08:07:10.438025+00:00,4.610000,-0.033440,
2025-10-24T08:07:10.443025+00:00,4.615000,-0.029260,
2025-10-24T08:07:10.448025+00:00,4.620000,-0.030020,
2025-10-24T08:07:10.453025+00:00,4.625000,-0.033060,
2025-10-24T08:07:10.458025+00:00,4.630000,-0.033820,
2025-10-24T08:07:10.463025+00:00,4.635000,-0.032300,
2025-10-24T08:07:10.468025+00:00,4.640000,-0.029260,
2025-10-24T08:07:10.473025+00:00,4.645000,-0.028500,
2025-10-24T08:07:10.478025+00:00,4.650000,-0.030020,
2025-10-24T08:07:10.483025+00:00,4.655000,-0.033440,
2025-10-24T08:07:10.488025+00:00,4.660000,-0.036480,
2025-10-24T08:07:10.493025+00:00,4.665000,-0.037620,
2025-10-24T08:07:10.498025+00:00,4.670000,-0.034580,
2025-10-24T08:07:10.503025+00:00,4.675000,-0.030020,
2025-10-24T08:07:10.508025+00:00,4.680000,-0.028500,
2025-10-24T08:07:10.513025+00:00,4.685000,-0.028880,
2025-10-24T08:07:10.518025+00:00,4.690000,-0.030400,
2025-10-24T08:07:10.523025+00:00,4.695000,-0.031160,
2025-10-24T08:07:10.528025+00:00,4.700000,-0.029260,
2025-10-24T08:07:10.533025+00:00,4.705000,-0.028880,
2025-10-24T08:07:10.538025+00:00,4.710000,-0.028500,
2025-10-24T08:07:10.543025+00:00,4.715000,-0.030780,
2025-10-24T08:07:10.548025+00:00,4.720000,-0.033820,
2025-10-24T08:07:10.553025+00:00,4.725000,-0.033820,
2025-10-24T08:07:10.558025+00:00,4.730000,-0.031160,
2025-10-24T08:07:10.563025+00:00,4.735000,-0.028120,
2025-10-24T08:07:10.568025+00:00,4.740000,-0.026980,
2025-10-24T08:07:10.573025+00:00,4.745000,-0.028880,
2025-10-24T08:07:10.578025+00:00,4.750000,-0.030400,
2025-10-24T08:07:10.583025+00:00,4.755000,-0.029640,
2025-10-24T08:07:10.588025+00:00,4.760000,-0.028500,
2025-10-24T08:07:10.593025+00:00,4.765000,-0.028120,
2025-10-24T08:07:10.598025+00:00,4.770000,-0.027360,
2025-10-24T08:07:10.603025+00:00,4.775000,-0.026600,
2025-10-24T08:07:10.608025+00:00,4.780000,-0.023940,
2025-10-24T08:07:10.613025+00:00,4.785000,-0.024700,
2025-10-24T08:07:10.618025+00:00,4.790000,-0.027740,
2025-10-24T08:07:10.623025+00:00,4.795000,-0.030400,
2025-10-24T08:07:10.628025+00:00,4.800000,-0.031920,
2025-10-24T08:07:10.633025+00:00,4.805000,-0.030780,
2025-10-24T08:07:10.638025+00:00,4.810000,-0.029260,
2025-10-24T08:07:10.643025+00:00,4.815000,-0.028120,
2025-10-24T08:07:10.648025+00:00,4.820000,-0.028120,
2025-10-24T08:07:10.653025+00:00,4.825000,-0.025080,
2025-10-24T08:07:10.658025+00:00,4.830000,-0.022420,
2025-10-24T08:07:10.663025+00:00,4.835000,-0.022040,
2025-10-24T08:07:10.668025+00:00,4.840000,-0.023560,
2025-10-24T08:07:10.673025+00:00,4.845000,-0.023560,
2025-10-24T08:07:10.678025+00:00,4.850000,-0.024320,
2025-10-24T08:07:10.683025+00:00,4.855000,-0.026980,
2025-10-24T08:07:10.688025+00:00,4.860000,-0.032680,
2025-10-24T08:07:10.693025+00:00,4.865000,-0.033060,
2025-10-24T08:07:10.698025+00:00,4.870000,-0.028500,
2025-10-24T08:07:10.703025+00:00,4.875000,-0.019380,
2025-10-24T08:07:10.708025+00:00,4.880000,-0.013680,
2025-10-24T08:07:10.713025+00:00,4.885000,-0.014440,
2025-10-24T08:07:10.718025+00:00,4.890000,-0.020520,
2025-10-24T08:07:10.723025+00:00,4.895000,-0.027360,
2025-10-24T08:07:10.728025+00:00,4.900000,-0.036100,
2025-10-24T08:07:10.733025+00:00,4.905000,-0.043700,
2025-10-24T08:07:10.738025+00:00,4.910000,-0.048640,
2025-10-24T08:07:10.743025+00:00,4.915000,-0.048260,
2025-10-24T08:07:10.748025+00:00,4.920000,-0.046740,
2025-10-24T08:07:10.753025+00:00,4.925000,-0.042940,
2025-10-24T08:07:10.758025+00:00,4.930000,-0.044460,
2025-10-24T08:07:10.763025+00:00,4.935000,-0.044080,
2025-10-24T08:07:10.768025+00:00,4.940000,-0.036860,
2025-10-24T08:07:10.773025+00:00,4.945000,-0.028120,
2025-10-24T08:07:10.778025+00:00,4.950000,-0.032300,
2025-10-24T08:07:10.783025+00:00,4.955000,-0.040660,
2025-10-24T08:07:10.788025+00:00,4.960000,-0.015200,
2025-10-24T08:07:10.793025+00:00,4.965000,0.065360,
2025-10-24T08:07:10.798025+00:00,4.970000,0.162640,
2025-10-24T08:07:10.803025+00:00,4.975000,0.213560,
2025-10-24T08:07:10.808025+00:00,4.980000,0.213560,
2025-10-24T08:07:10.813025+00:00,4.985000,0.216220,
2025-10-24T08:07:10.818025+00:00,4.990000,0.247380,
2025-10-24T08:07:10.823025+00:00,4.995000,0.233700,
2025-10-24T08:07:10.828025+00:00,5.000000,0.081700,
2025-10-24T08:07:10.833025+00:00,5.005000,-0.197220,
2025-10-24T08:07:10.838025+00:00,5.010000,-0.451820,
2025-10-24T08:07:10.843025+00:00,5.015000,-0.538080,
2025-10-24T08:07:10.848025+00:00,5.020000,-0.450300,
2025-10-24T08:07:10.853025+00:00,5.025000,-0.297160,
2025-10-24T08:07:10.858025+00:00,5.030000,-0.175940,
2025-10-24T08:07:10.863025+00:00,5.035000,-0.102980,
2025-10-24T08:07:10.868025+00:00,5.040000,-0.048260,
2025-10-24T08:07:10.873025+00:00,5.045000,-0.001140,
2025-10-24T08:07:10.878025+00:00,5.050000,0.028120,
2025-10-24T08:07:10.883025+00:00,5.055000,0.031160,
2025-10-24T08:07:10.888025+00:00,5.060000,0.022420,
2025-10-24T08:07:10.893025+00:00,5.065000,0.012160,
2025-10-24T08:07:10.898025+00:00,5.070000,0.006080,
2025-10-24T08:07:10.903025+00:00,5.075000,0.003800,
2025-10-24T08:07:10.908025+00:00,5.080000,0.001140,
2025-10-24T08:07:10.913025+00:00,5.085000,-0.002280,
2025-10-24T08:07:10.918025+00:00,5.090000,-0.003420,
2025-10-24T08:07:10.923025+00:00,5.095000,-0.004940,
2025-10-24T08:07:10.928025+00:00,5.100000,-0.004560,
2025-10-24T08:07:10.933025+00:00,5.105000,-0.003800,
2025-10-24T08:07:10.938025+00:00,5.110000,-0.004940,
2025-10-24T08:07:10.943025+00:00,5.115000,-0.006080,
2025-10-24T08:07:10.948025+00:00,5.120000,-0.009500,
2025-10-24T08:07:10.953025+00:00,5.125000,-0.008740,
2025-10-24T08:07:10.958025+00:00,5.130000,-0.004940,
2025-10-24T08:07:10.963025+00:00,5.135000,0.000000,
2025-10-24T08:07:10.968025+00:00,5.140000,0.002660,
2025-10-24T08:07:10.973025+00:00,5.145000,0.003800,
2025-10-24T08:07:10.978025+00:00,5.150000,0.003420,
2025-10-24T08:07:10.983025+00:00,5.155000,0.004180,
2025-10-24T08:07:10.988025+00:00,5.160000,0.006080,
2025-10-24T08:07:10.993025+00:00,5.165000,0.008360,
2025-10-24T08:07:10.998025+00:00,5.170000,0.007220,
2025-10-24T08:07:11.003025+00:00,5.175000,0.006080,
2025-10-24T08:07:11.008025+00:00,5.180000,0.007220,
2025-10-24T08:07:11.013025+00:00,5.185000,0.014440,
2025-10-24T08:07:11.018025+00:00,5.190000,0.023180,
2025-10-24T08:07:11.023025+00:00,5.195000,0.027740,
2025-10-24T08:07:11.028025+00:00,5.200000,0.028500,
2025-10-24T08:07:11.033025+00:00,5.205000,0.027740,
2025-10-24T08:07:11.038025+00:00,5.210000,0.028120,
2025-10-24T08:07:11.043025+00:00,5.215000,0.026220,
2025-10-24T08:07:11.048025+00:00,5.220000,0.021280,
2025-10-24T08:07:11.053025+00:00,5.225000,0.014060,
2025-10-24T08:07:11.058025+00:00,5.230000,0.005700,
2025-10-24T08:07:11.063025+00:00,5.235000,-0.004940,
2025-10-24T08:07:11.068025+00:00,5.240000,-0.016720,
2025-10-24T08:07:11.073025+00:00,5.245000,-0.031920,
2025-10-24T08:07:11.078025+00:00,5.250000,-0.047120,
2025-10-24T08:07:11.083025+00:00,5.255000,-0.067640,
2025-10-24T08:07:11.088025+00:00,5.260000,-0.092340,
2025-10-24T08:07:11.093025+00:00,5.265000,-0.120460,
2025-10-24T08:07:11.098025+00:00,5.270000,-0.147060,
2025-10-24T08:07:11.103025+00:00,5.275000,-0.169480,
2025-10-24T08:07:11.108025+00:00,5.280000,-0.183920,
2025-10-24T08:07:11.113025+00:00,5.285000,-0.191520,
2025-10-24T08:07:11.118025+00:00,5.290000,-0.190000,
2025-10-24T08:07:11.123025+00:00,5.295000,-0.182780,
2025-10-24T08:07:11.128025+00:00,5.300000,-0.172140,
2025-10-24T08:07:11.133025+00:00,5.305000,-0.159980,
2025-10-24T08:07:11.138025+00:00,5.310000,-0.146680,
2025-10-24T08:07:11.143025+00:00,5.315000,-0.132620,
2025-10-24T08:07:11.148025+00:00,5.320000,-0.113620,
2025-10-24T08:07:11.153025+00:00,5.325000,-0.098420,
2025-10-24T08:07:11.158025+00:00,5.330000,-0.085120,
2025-10-24T08:07:11.163025+00:00,5.335000,-0.073340,
2025-10-24T08:07:11.168025+00:00,5.340000,-0.063460,
2025-10-24T08:07:11.173025+00:00,5.345000,-0.056620,
2025-10-24T08:07:11.178025+00:00,5.350000,-0.053580,
2025-10-24T08:07:11.183025+00:00,5.355000,-0.048640,
2025-10-24T08:07:11.188025+00:00,5.360000,-0.043700,
2025-10-24T08:07:11.193025+00:00,5.365000,-0.037620,
2025-10-24T08:07:11.198025+00:00,5.370000,-0.034580,
2025-10-24T08:07:11.203025+00:00,5.375000,-0.034200,
2025-10-24T08:07:11.208025+00:00,5.380000,-0.034580,
2025-10-24T08:07:11.213025+00:00,5.385000,-0.032680,
2025-10-24T08:07:11.218025+00:00,5.390000,-0.029260,
2025-10-24T08:07:11.223025+00:00,5.395000,-0.025840,
2025-10-24T08:07:11.228025+00:00,5.400000,-0.025080,
2025-10-24T08:07:11.233025+00:00,5.405000,-0.026980,
2025-10-24T08:07:11.238025+00:00,5.410000,-0.030780,
2025-10-24T08:07:11.243025+00:00,5.415000,-0.029640,
2025-10-24T08:07:11.248025+00:00,5.420000,-0.025080,
2025-10-24T08:07:11.253025+00:00,5.425000,-0.020520,
2025-10-24T08:07:11.258025+00:00,5.430000,-0.020520,
2025-10-24T08:07:11.263025+00:00,5.435000,-0.025840,
2025-10-24T08:07:11.268025+00:00,5.440000,-0.031540,
2025-10-24T08:07:11.273025+00:00,5.445000,-0.033820,
2025-10-24T08:07:11.278025+00:00,5.450000,-0.032680,
2025-10-24T08:07:11.283025+00:00,5.455000,-0.031540,
2025-10-24T08:07:11.288025+00:00,5.460000,-0.033060,
2025-10-24T08:07:11.293025+00:00,5.465000,-0.034580,
2025-10-24T08:07:11.298025+00:00,5.470000,-0.035340,
2025-10-24T08:07:11.303025+00:00,5.475000,-0.033820,
2025-10-24T08:07:11.308025+00:00,5.480000,-0.033060,
2025-10-24T08:07:11.313025+00:00,5.485000,-0.034960,
2025-10-24T08:07:11.318025+00:00,5.490000,-0.036480,
2025-10-24T08:07:11.323025+00:00,5.495000,-0.034960,
2025-10-24T08:07:11.328025+00:00,5.500000,-0.033060,
2025-10-24T08:07:11.333025+00:00,5.505000,-0.031540,
2025-10-24T08:07:11.338025+00:00,5.510000,-0.033060,
2025-10-24T08:07:11.343025+00:00,5.515000,-0.035340,
2025-10-24T08:07:11.348025+00:00,5.520000,-0.036480,
2025-10-24T08:07:11.353025+00:00,5.525000,-0.034960,
2025-10-24T08:07:11.358025+00:00,5.530000,-0.033060,
2025-10-24T08:07:11.363025+00:00,5.535000,-0.031920,
2025-10-24T08:07:11.368025+00:00,5.540000,-0.034200,
2025-10-24T08:07:11.373025+00:00,5.545000,-0.036480,
2025-10-24T08:07:11.378025+00:00,5.550000,-0.036480,
2025-10-24T08:07:11.383025+00:00,5.555000,-0.033440,
2025-10-24T08:07:11.388025+00:00,5.560000,-0.030020,
2025-10-24T08:07:11.393025+00:00,5.565000,-0.029640,
2025-10-24T08:07:11.398025+00:00,5.570000,-0.030020,
2025-10-24T08:07:11.403025+00:00,5.575000,-0.030020,
2025-10-24T08:07:11.408025+00:00,5.580000,-0.030400,
2025-10-24T08:07:11.413025+00:00,5.585000,-0.032300,
2025-10-24T08:07:11.418025+00:00,5.590000,-0.034960,
2025-10-24T08:07:11.423025+00:00,5.595000,-0.035340,
2025-10-24T08:07:11.428025+00:00,5.600000,-0.033820,
2025-10-24T08:07:11.433025+00:00,5.605000,-0.030020,
2025-10-24T08:07:11.438025+00:00,5.610000,-0.026600,
2025-10-24T08:07:11.443025+00:00,5.615000,-0.025080,
2025-10-24T08:07:11.448025+00:00,5.620000,-0.024320,
2025-10-24T08:07:11.453025+00:00,5.625000,-0.026600,
2025-10-24T08:07:11.458025+00:00,5.630000,-0.029260,
2025-10-24T08:07:11.463025+00:00,5.635000,-0.031540,
2025-10-24T08:07:11.468025+00:00,5.640000,-0.030400,
2025-10-24T08:07:11.473025+00:00,5.645000,-0.027740,
2025-10-24T08:07:11.478025+00:00,5.650000,-0.028120,
2025-10-24T08:07:11.483025+00:00,5.655000,-0.029640,
2025-10-24T08:07:11.488025+00:00,5.660000,-0.029260,
2025-10-24T08:07:11.493025+00:00,5.665000,-0.027740,
2025-10-24T08:07:11.498025+00:00,5.670000,-0.026220,
2025-10-24T08:07:11.503025+00:00,5.675000,-0.025840,
2025-10-24T08:07:11.508025+00:00,5.680000,-0.026220,
2025-10-24T08:07:11.513025+00:00,5.685000,-0.023560,
2025-10-24T08:07:11.518025+00:00,5.690000,-0.022800,
2025-10-24T08:07:11.523025+00:00,5.695000,-0.021660,
2025-10-24T08:07:11.528025+00:00,5.700000,-0.022800,
2025-10-24T08:07:11.533025+00:00,5.705000,-0.023940,
2025-10-24T08:07:11.538025+00:00,5.710000,-0.026220,
2025-10-24T08:07:11.543025+00:00,5.715000,-0.030020,
2025-10-24T08:07:11.548025+00:00,5.720000,-0.034200,
2025-10-24T08:07:11.553025+00:00,5.725000,-0.034200,
2025-10-24T08:07:11.558025+00:00,5.730000,-0.028120,
2025-10-24T08:07:11.563025+00:00,5.735000,-0.018620,
2025-10-24T08:07:11.568025+00:00,5.740000,-0.015580,
2025-10-24T08:07:11.573025+00:00,5.745000,-0.020900,
2025-10-24T08:07:11.578025+00:00,5.750000,-0.031160,
2025-10-24T08:07:11.583025+00:00,5.755000,-0.041420,
2025-10-24T08:07:11.588025+00:00,5.760000,-0.044840,
2025-10-24T08:07:11.593025+00:00,5.765000,-0.046360,
2025-10-24T08:07:11.598025+00:00,5.770000,-0.044080,
2025-10-24T08:07:11.603025+00:00,5.775000,-0.040280,
2025-10-24T08:07:11.608025+00:00,5.780000,-0.038760,
2025-10-24T08:07:11.613025+00:00,5.785000,-0.041420,
2025-10-24T08:07:11.618025+00:00,5.790000,-0.042940,
2025-10-24T08:07:11.623025+00:00,5.795000,-0.038000,
2025-10-24T08:07:11.628025+00:00,5.800000,-0.032680,
2025-10-24T08:07:11.633025+00:00,5.805000,-0.038760,
2025-10-24T08:07:11.638025+00:00,5.810000,-0.039520,
2025-10-24T08:07:11.643025+00:00,5.815000,0.003420,
2025-10-24T08:07:11.648025+00:00,5.820000,0.096900,
2025-10-24T08:07:11.653025+00:00,5.825000,0.188480,
2025-10-24T08:07:11.658025+00:00,5.830000,0.220020,
2025-10-24T08:07:11.663025+00:00,5.835000,0.206720,
2025-10-24T08:07:11.668025+00:00,5.840000,0.210900,
2025-10-24T08:07:11.673025+00:00,5.845000,0.237500,
2025-10-24T08:07:11.678025+00:00,5.850000,0.195700,
2025-10-24T08:07:11.683025+00:00,5.855000,0.003420,
2025-10-24T08:07:11.688025+00:00,5.860000,-0.283100,
2025-10-24T08:07:11.693025+00:00,5.865000,-0.498940,
2025-10-24T08:07:11.698025+00:00,5.870000,-0.528960,
2025-10-24T08:07:11.703025+00:00,5.875000,-0.408880,
2025-10-24T08:07:11.708025+00:00,5.880000,-0.254600,
2025-10-24T08:07:11.713025+00:00,5.885000,-0.147440,
2025-10-24T08:07:11.718025+00:00,5.890000,-0.081700,
2025-10-24T08:07:11.723025+00:00,5.895000,-0.028500,
2025-10-24T08:07:11.728025+00:00,5.900000,0.015580,
2025-10-24T08:07:11.733025+00:00,5.905000,0.035720,
2025-10-24T08:07:11.738025+00:00,5.910000,0.034580,
2025-10-24T08:07:11.743025+00:00,5.915000,0.023180,
2025-10-24T08:07:11.748025+00:00,5.920000,0.013680,
2025-10-24T08:07:11.753025+00:00,5.925000,0.007220,
2025-10-24T08:07:11.758025+00:00,5.930000,0.005320,
2025-10-24T08:07:11.763025+00:00,5.935000,0.002280,
2025-10-24T08:07:11.768025+00:00,5.940000,-0.003040,
2025-10-24T08:07:11.773025+00:00,5.945000,-0.006840,
2025-10-24T08:07:11.778025+00:00,5.950000,-0.004180,
2025-10-24T08:07:11.783025+00:00,5.955000,-0.001900,
2025-10-24T08:07:11.788025+00:00,5.960000,-0.000760,
2025-10-24T08:07:11.793025+00:00,5.965000,-0.001900,
2025-10-24T08:07:11.798025+00:00,5.970000,-0.001900,
2025-10-24T08:07:11.803025+00:00,5.975000,-0.001900,
2025-10-24T08:07:11.808025+00:00,5.980000,-0.003800,
2025-10-24T08:07:11.813025+00:00,5.985000,-0.004560,
2025-10-24T08:07:11.818025+00:00,5.990000,-0.002660,
2025-10-24T08:07:11.823025+00:00,5.995000,-0.000760,
2025-10-24T08:07:11.828025+00:00,6.000000,0.000380,
2025-10-24T08:07:11.833025+00:00,6.005000,0.002660,
2025-10-24T08:07:11.838025+00:00,6.010000,0.006460,
2025-10-24T08:07:11.843025+00:00,6.015000,0.011780,
2025-10-24T08:07:11.848025+00:00,6.020000,0.012540,
2025-10-24T08:07:11.853025+00:00,6.025000,0.013680,
2025-10-24T08:07:11.858025+00:00,6.030000,0.012920,
2025-10-24T08:07:11.863025+00:00,6.035000,0.015580,
2025-10-24T08:07:11.868025+00:00,6.040000,0.019380,
2025-10-24T08:07:11.873025+00:00,6.045000,0.026220,
2025-10-24T08:07:11.878025+00:00,6.050000,0.032680,
2025-10-24T08:07:11.883025+00:00,6.055000,0.035340,
2025-10-24T08:07:11.888025+00:00,6.060000,0.031920,
2025-10-24T08:07:11.893025+00:00,6.065000,0.028120,
2025-10-24T08:07:11.898025+00:00,6.070000,0.024700,
2025-10-24T08:07:11.903025+00:00,6.075000,0.022040,
2025-10-24T08:07:11.908025+00:00,6.080000,0.014440,
2025-10-24T08:07:11.913025+00:00,6.085000,0.004180,
2025-10-24T08:07:11.918025+00:00,6.090000,-0.006840,
2025-10-24T08:07:11.923025+00:00,6.095000,-0.019760,
2025-10-24T08:07:11.928025+00:00,6.100000,-0.036860,
2025-10-24T08:07:11.933025+00:00,6.105000,-0.058520,
2025-10-24T08:07:11.938025+00:00,6.110000,-0.083600,
2025-10-24T08:07:11.943025+00:00,6.115000,-0.111340,
2025-10-24T08:07:11.948025+00:00,6.120000,-0.138320,
2025-10-24T08:07:11.953025+00:00,6.125000,-0.163020,
2025-10-24T08:07:11.958025+00:00,6.130000,-0.180880,
2025-10-24T08:07:11.963025+00:00,6.135000,-0.191520,
2025-10-24T08:07:11.968025+00:00,6.140000,-0.191900,
2025-10-24T08:07:11.973025+00:00,6.145000,-0.185440,
2025-10-24T08:07:11.978025+00:00,6.150000,-0.176700,
2025-10-24T08:07:11.983025+00:00,6.155000,-0.165680,
2025-10-24T08:07:11.988025+00:00,6.160000,-0.152000,
2025-10-24T08:07:11.993025+00:00,6.165000,-0.135660,
2025-10-24T08:07:11.998025+00:00,6.170000,-0.119700,
2025-10-24T08:07:12.003025+00:00,6.175000,-0.106400,
2025-10-24T08:07:12.008025+00:00,6.180000,-0.095760,
2025-10-24T08:07:12.013025+00:00,6.185000,-0.084740,
2025-10-24T08:07:12.018025+00:00,6.190000,-0.073720,
2025-10-24T08:07:12.023025+00:00,6.195000,-0.062700,
2025-10-24T08:07:12.028025+00:00,6.200000,-0.056240,
2025-10-24T08:07:12.033025+00:00,6.205000,-0.049780,
2025-10-24T08:07:12.038025+00:00,6.210000,-0.044460,
2025-10-24T08:07:12.043025+00:00,6.215000,-0.038760,
2025-10-24T08:07:12.048025+00:00,6.220000,-0.035720,
2025-10-24T08:07:12.053025+00:00,6.225000,-0.033060,
2025-10-24T08:07:12.058025+00:00,6.230000,-0.030020,
2025-10-24T08:07:12.063025+00:00,6.235000,-0.025080,
2025-10-24T08:07:12.068025+00:00,6.240000,-0.023180,
2025-10-24T08:07:12.073025+00:00,6.245000,-0.022800,
2025-10-24T08:07:12.078025+00:00,6.250000,-0.025460,
2025-10-24T08:07:12.083025+00:00,6.255000,-0.025460,
2025-10-24T08:07:12.088025+00:00,6.260000,-0.026220,
2025-10-24T08:07:12.093025+00:00,6.265000,-0.025460,
2025-10-24T08:07:12.098025+00:00,6.270000,-0.023940,
2025-10-24T08:07:12.103025+00:00,6.275000,-0.022800,
2025-10-24T08:07:12.108025+00:00,6.280000,-0.023560,
2025-10-24T08:07:12.113025+00:00,6.285000,-0.027740,
2025-10-24T08:07:12.118025+00:00,6.290000,-0.030400,
2025-10-24T08:07:12.123025+00:00,6.295000,-0.030780,
2025-10-24T08:07:12.128025+00:00,6.300000,-0.031160,
2025-10-24T08:07:12.133025+00:00,6.305000,-0.031540,
2025-10-24T08:07:12.138025+00:00,6.310000,-0.032300,
2025-10-24T08:07:12.143025+00:00,6.315000,-0.032680,
2025-10-24T08:07:12.148025+00:00,6.320000,-0.034200,
2025-10-24T08:07:12.153025+00:00,6.325000,-0.035720,
2025-10-24T08:07:12.158025+00:00,6.330000,-0.036480,
2025-10-24T08:07:12.163025+00:00,6.335000,-0.035720,
2025-10-24T08:07:12.168025+00:00,6.340000,-0.033820,
2025-10-24T08:07:12.173025+00:00,6.345000,-0.034580,
2025-10-24T08:07:12.178025+00:00,6.350000,-0.035720,
2025-10-24T08:07:12.183025+00:00,6.355000,-0.035720,
2025-10-24T08:07:12.188025+00:00,6.360000,-0.034580,
2025-10-24T08:07:12.193025+00:00,6.365000,-0.032680,
2025-10-24T08:07:12.198025+00:00,6.370000,-0.033440,
2025-10-24T08:07:12.203025+00:00,6.375000,-0.036100,
2025-10-24T08:07:12.208025+00:00,6.380000,-0.036100,
2025-10-24T08:07:12.213025+00:00,6.385000,-0.033820,
2025-10-24T08:07:12.218025+00:00,6.390000,-0.031540,
2025-10-24T08:07:12.223025+00:00,6.395000,-0.031920,
2025-10-24T08:07:12.228025+00:00,6.400000,-0.033060,
2025-10-24T08:07:12.233025+00:00,6.405000,-0.033060,
2025-10-24T08:07:12.238025+00:00,6.410000,-0.032300,
2025-10-24T08:07:12.243025+00:00,6.415000,-0.031540,
2025-10-24T08:07:12.248025+00:00,6.420000,-0.029640,
2025-10-24T08:07:12.253025+00:00,6.425000,-0.029640,
2025-10-24T08:07:12.258025+00:00,6.430000,-0.031540,
2025-10-24T08:07:12.263025+00:00,6.435000,-0.034200,
2025-10-24T08:07:12.268025+00:00,6.440000,-0.034960,
2025-10-24T08:07:12.273025+00:00,6.445000,-0.032680,
2025-10-24T08:07:12.278025+00:00,6.450000,-0.030780,
2025-10-24T08:07:12.283025+00:00,6.455000,-0.030780,
2025-10-24T08:07:12.288025+00:00,6.460000,-0.033440,
2025-10-24T08:07:12.293025+00:00,6.465000,-0.034580,
2025-10-24T08:07:12.298025+00:00,6.470000,-0.033440,
2025-10-24T08:07:12.303025+00:00,6.475000,-0.031920,
2025-10-24T08:07:12.308025+00:00,6.480000,-0.031920,
2025-10-24T08:07:12.313025+00:00,6.485000,-0.030780,
2025-10-24T08:07:12.318025+00:00,6.490000,-0.030020,
2025-10-24T08:07:12.323025+00:00,6.495000,-0.027360,
2025-10-24T08:07:12.328025+00:00,6.500000,-0.026220,
2025-10-24T08:07:12.333025+00:00,6.505000,-0.027360,
2025-10-24T08:07:12.338025+00:00,6.510000,-0.029640,
2025-10-24T08:07:12.343025+00:00,6.515000,-0.033440,
2025-10-24T08:07:12.348025+00:00,6.520000,-0.034200,
2025-10-24T08:07:12.353025+00:00,6.525000,-0.032680,
2025-10-24T08:07:12.358025+00:00,6.530000,-0.026980,
2025-10-24T08:07:12.363025+00:00,6.535000,-0.023180,
2025-10-24T08:07:12.368025+00:00,6.540000,-0.021660,
2025-10-24T08:07:12.373025+00:00,6.545000,-0.023180,
2025-10-24T08:07:12.378025+00:00,6.550000,-0.024320,
2025-10-24T08:07:12.383025+00:00,6.555000,-0.026600,
2025-10-24T08:07:12.388025+00:00,6.560000,-0.028500,
2025-10-24T08:07:12.393025+00:00,6.565000,-0.031920,
2025-10-24T08:07:12.398025+00:00,6.570000,-0.033440,
2025-10-24T08:07:12.403025+00:00,6.575000,-0.032300,
2025-10-24T08:07:12.408025+00:00,6.580000,-0.027360,
2025-10-24T08:07:12.413025+00:00,6.585000,-0.022040,
2025-10-24T08:07:12.418025+00:00,6.590000,-0.019380,
2025-10-24T08:07:12.423025+00:00,6.595000,-0.022800,
2025-10-24T08:07:12.428025+00:00,6.600000,-0.031160,
2025-10-24T08:07:12.433025+00:00,6.605000,-0.037620,
2025-10-24T08:07:12.438025+00:00,6.610000,-0.042180,
2025-10-24T08:07:12.443025+00:00,6.615000,-0.042940,
2025-10-24T08:07:12.448025+00:00,6.620000,-0.042940,
2025-10-24T08:07:12.453025+00:00,6.625000,-0.043700,
2025-10-24T08:07:12.458025+00:00,6.630000,-0.044460,
2025-10-24T08:07:12.463025+00:00,6.635000,-0.042560,
2025-10-24T08:07:12.468025+00:00,6.640000,-0.039520,
2025-10-24T08:07:12.473025+00:00,6.645000,-0.032680,
2025-10-24T08:07:12.478025+00:00,6.650000,-0.030400,
2025-10-24T08:07:12.483025+00:00,6.655000,-0.039900,
2025-10-24T08:07:12.488025+00:00,6.660000,-0.047880,
2025-10-24T08:07:12.493025+00:00,6.665000,-0.012540,
2025-10-24T08:07:12.498025+00:00,6.670000,0.079420,
2025-10-24T08:07:12.503025+00:00,6.675000,0.178980,
2025-10-24T08:07:12.508025+00:00,6.680000,0.221160,
2025-10-24T08:07:12.513025+00:00,6.685000,0.209000,
2025-10-24T08:07:12.518025+00:00,6.690000,0.204440,
2025-10-24T08:07:12.523025+00:00,6.695000,0.231040,
2025-10-24T08:07:12.528025+00:00,6.700000,0.208240,
2025-10-24T08:07:12.533025+00:00,6.705000,0.038760,
2025-10-24T08:07:12.538025+00:00,6.710000,-0.243580,
2025-10-24T08:07:12.543025+00:00,6.715000,-0.477280,
2025-10-24T08:07:12.548025+00:00,6.720000,-0.531620,
2025-10-24T08:07:12.553025+00:00,6.725000,-0.422560,
2025-10-24T08:07:12.558025+00:00,6.730000,-0.268280,
2025-10-24T08:07:12.563025+00:00,6.735000,-0.155800,
2025-10-24T08:07:12.568025+00:00,6.740000,-0.086640,
2025-10-24T08:07:12.573025+00:00,6.745000,-0.033440,
2025-10-24T08:07:12.578025+00:00,6.750000,0.012540,
2025-10-24T08:07:12.583025+00:00,6.755000,0.034580,
2025-10-24T08:07:12.588025+00:00,6.760000,0.033440,
2025-10-24T08:07:12.593025+00:00,6.765000,0.022800,
2025-10-24T08:07:12.598025+00:00,6.770000,0.014060,
2025-10-24T08:07:12.603025+00:00,6.775000,0.009500,
2025-10-24T08:07:12.608025+00:00,6.780000,0.005320,
2025-10-24T08:07:12.613025+00:00,6.785000,0.001140,
2025-10-24T08:07:12.618025+00:00,6.790000,-0.003420,
2025-10-24T08:07:12.623025+00:00,6.795000,-0.004560,
2025-10-24T08:07:12.628025+00:00,6.800000,-0.002660,
2025-10-24T08:07:12.633025+00:00,6.805000,-0.001520,
2025-10-24T08:07:12.638025+00:00,6.810000,-0.002660,
2025-10-24T08:07:12.643025+00:00,6.815000,-0.005700,
2025-10-24T08:07:12.648025+00:00,6.820000,-0.006840,
2025-10-24T08:07:12.653025+00:00,6.825000,-0.006460,
2025-10-24T08:07:12.658025+00:00,6.830000,-0.005320,
2025-10-24T08:07:12.663025+00:00,6.835000,-0.005320,
2025-10-24T08:07:12.668025+00:00,6.840000,-0.006080,
2025-10-24T08:07:12.673025+00:00,6.845000,-0.003040,
2025-10-24T08:07:12.678025+00:00,6.850000,0.001520,
2025-10-24T08:07:12.683025+00:00,6.855000,0.007600,
2025-10-24T08:07:12.688025+00:00,6.860000,0.010260,
2025-10-24T08:07:12.693025+00:00,6.865000,0.009120,
2025-10-24T08:07:12.698025+00:00,6.870000,0.007220,
2025-10-24T08:07:12.703025+00:00,6.875000,0.009500,
2025-10-24T08:07:12.708025+00:00,6.880000,0.014440,
2025-10-24T08:07:12.713025+00:00,6.885000,0.018620,
2025-10-24T08:07:12.718025+00:00,6.890000,0.020900,
2025-10-24T08:07:12.723025+00:00,6.895000,0.022040,
2025-10-24T08:07:12.728025+00:00,6.900000,0.025080,
2025-10-24T08:07:12.733025+00:00,6.905000,0.029260,
2025-10-24T08:07:12.738025+00:00,6.910000,0.031540,
2025-10-24T08:07:12.743025+00:00,6.915000,0.029640,
2025-10-24T08:07:12.748025+00:00,6.920000,0.023560,
2025-10-24T08:07:12.753025+00:00,6.925000,0.016340,
2025-10-24T08:07:12.758025+00:00,6.930000,0.009120,
2025-10-24T08:07:12.763025+00:00,6.935000,0.001900,
2025-10-24T08:07:12.768025+00:00,6.940000,-0.007220,
2025-10-24T08:07:12.773025+00:00,6.945000,-0.020140,
2025-10-24T08:07:12.778025+00:00,6.950000,-0.036860,
2025-10-24T08:07:12.783025+00:00,6.955000,-0.057760,
2025-10-24T08:07:12.788025+00:00,6.960000,-0.080560,
2025-10-24T08:07:12.793025+00:00,6.965000,-0.104880,
2025-10-24T08:07:12.798025+00:00,6.970000,-0.131860,
2025-10-24T08:07:12.803025+00:00,6.975000,-0.155800,
2025-10-24T08:07:12.808025+00:00,6.980000,-0.174800,
2025-10-24T08:07:12.813025+00:00,6.985000,-0.185440,
2025-10-24T08:07:12.818025+00:00,6.990000,-0.187340,
2025-10-24T08:07:12.823025+00:00,6.995000,-0.182780,
2025-10-24T08:07:12.828025+00:00,7.000000,-0.174040,
2025-10-24T08:07:12.833025+00:00,7.005000,-0.163400,
2025-10-24T08:07:12.838025+00:00,7.010000,-0.148960,
2025-10-24T08:07:12.843025+00:00,7.015000,-0.134140,
2025-10-24T08:07:12.848025+00:00,7.020000,-0.120840,
2025-10-24T08:07:12.853025+00:00,7.025000,-0.106020,
2025-10-24T08:07:12.858025+00:00,7.030000,-0.093480,
2025-10-24T08:07:12.863025+00:00,7.035000,-0.082840,
2025-10-24T08:07:12.868025+00:00,7.040000,-0.074100,
2025-10-24T08:07:12.873025+00:00,7.045000,-0.066120,
2025-10-24T08:07:12.878025+00:00,7.050000,-0.058520,
2025-10-24T08:07:12.883025+00:00,7.055000,-0.049780,
2025-10-24T08:07:12.888025+00:00,7.060000,-0.044460,
2025-10-24T08:07:12.893025+00:00,7.065000,-0.039140,
2025-10-24T08:07:12.898025+00:00,7.070000,-0.033820,
2025-10-24T08:07:12.903025+00:00,7.075000,-0.031160,
2025-10-24T08:07:12.908025+00:00,7.080000,-0.031160,
2025-10-24T08:07:12.913025+00:00,7.085000,-0.030020,
2025-10-24T08:07:12.918025+00:00,7.090000,-0.028500,
2025-10-24T08:07:12.923025+00:00,7.095000,-0.026980,
2025-10-24T08:07:12.928025+00:00,7.100000,-0.026600,
2025-10-24T08:07:12.933025+00:00,7.105000,-0.026600,
2025-10-24T08:07:12.938025+00:00,7.110000,-0.025080,
2025-10-24T08:07:12.943025+00:00,7.115000,-0.021660,
2025-10-24T08:07:12.948025+00:00,7.120000,-0.021280,
2025-10-24T08:07:12.953025+00:00,7.125000,-0.022040,
2025-10-24T08:07:12.958025+00:00,7.130000,-0.024700,
2025-10-24T08:07:12.963025+00:00,7.135000,-0.026220,
2025-10-24T08:07:12.968025+00:00,7.140000,-0.028880,
2025-10-24T08:07:12.973025+00:00,7.145000,-0.029260,
2025-10-24T08:07:12.978025+00:00,7.150000,-0.028880,
2025-10-24T08:07:12.983025+00:00,7.155000,-0.028120,
2025-10-24T08:07:12.988025+00:00,7.160000,-0.028500,
2025-10-24T08:07:12.993025+00:00,7.165000,-0.030020,
2025-10-24T08:07:12.998025+00:00,7.170000,-0.033440,
2025-10-24T08:07:13.003025+00:00,7.175000,-0.037240,
2025-10-24T08:07:13.008025+00:00,7.180000,-0.038000,
2025-10-24T08:07:13.013025+00:00,7.185000,-0.036100,
2025-10-24T08:07:13.018025+00:00,7.190000,-0.033820,
2025-10-24T08:07:13.023025+00:00,7.195000,-0.033060,
2025-10-24T08:07:13.028025+00:00,7.200000,-0.031160,
2025-10-24T08:07:13.033025+00:00,7.205000,-0.030020,
2025-10-24T08:07:13.038025+00:00,7.210000,-0.030400,
2025-10-24T08:07:13.043025+00:00,7.215000,-0.032680,
2025-10-24T08:07:13.048025+00:00,7.220000,-0.034960,
2025-10-24T08:07:13.053025+00:00,7.225000,-0.036860,
2025-10-24T08:07:13.058025+00:00,7.230000,-0.035720,
2025-10-24T08:07:13.063025+00:00,7.235000,-0.033440,
2025-10-24T08:07:13.068025+00:00,7.240000,-0.031160,
2025-10-24T08:07:13.073025+00:00,7.245000,-0.030780,
2025-10-24T08:07:13.078025+00:00,7.250000,-0.031540,
2025-10-24T08:07:13.083025+00:00,7.255000,-0.031920,
2025-10-24T08:07:13.088025+00:00,7.260000,-0.031540,
2025-10-24T08:07:13.093025+00:00,7.265000,-0.030780,
2025-10-24T08:07:13.098025+00:00,7.270000,-0.033440,
2025-10-24T08:07:13.103025+00:00,7.275000,-0.034960,
2025-10-24T08:07:13.108025+00:00,7.280000,-0.034200,
2025-10-24T08:07:13.113025+00:00,7.285000,-0.032300,
2025-10-24T08:07:13.118025+00:00,7.290000,-0.031160,
2025-10-24T08:07:13.123025+00:00,7.295000,-0.032300,
2025-10-24T08:07:13.128025+00:00,7.300000,-0.034200,
2025-10-24T08:07:13.133025+00:00,7.305000,-0.034960,
2025-10-24T08:07:13.138025+00:00,7.310000,-0.031920,
2025-10-24T08:07:13.143025+00:00,7.315000,-0.028880,
2025-10-24T08:07:13.148025+00:00,7.320000,-0.025840,
2025-10-24T08:07:13.153025+00:00,7.325000,-0.025460,
2025-10-24T08:07:13.158025+00:00,7.330000,-0.028880,
2025-10-24T08:07:13.163025+00:00,7.335000,-0.031920,
2025-10-24T08:07:13.168025+00:00,7.340000,-0.032300,
2025-10-24T08:07:13.173025+00:00,7.345000,-0.028120,
2025-10-24T08:07:13.178025+00:00,7.350000,-0.026980,
2025-10-24T08:07:13.183025+00:00,7.355000,-0.028880,
2025-10-24T08:07:13.188025+00:00,7.360000,-0.031540,
2025-10-24T08:07:13.193025+00:00,7.365000,-0.031540,
2025-10-24T08:07:13.198025+00:00,7.370000,-0.030780,
2025-10-24T08:07:13.203025+00:00,7.375000,-0.027740,
2025-10-24T08:07:13.208025+00:00,7.380000,-0.026980,
2025-10-24T08:07:13.213025+00:00,7.385000,-0.027740,
2025-10-24T08:07:13.218025+00:00,7.390000,-0.028880,
2025-10-24T08:07:13.223025+00:00,7.395000,-0.029640,
2025-10-24T08:07:13.228025+00:00,7.400000,-0.030400,
2025-10-24T08:07:13.233025+00:00,7.405000,-0.028880,
2025-10-24T08:07:13.238025+00:00,7.410000,-0.025840,
2025-10-24T08:07:13.243025+00:00,7.415000,-0.023560,
2025-10-24T08:07:13.248025+00:00,7.420000,-0.025840,
2025-10-24T08:07:13.253025+00:00,7.425000,-0.033060,
2025-10-24T08:07:13.258025+00:00,7.430000,-0.038380,
2025-10-24T08:07:13.263025+00:00,7.435000,-0.037620,
2025-10-24T08:07:13.268025+00:00,7.440000,-0.031160,
2025-10-24T08:07:13.273025+00:00,7.445000,-0.025840,
2025-10-24T08:07:13.278025+00:00,7.450000,-0.025460,
2025-10-24T08:07:13.283025+00:00,7.455000,-0.030400,
2025-10-24T08:07:13.288025+00:00,7.460000,-0.033060,
2025-10-24T08:07:13.293025+00:00,7.465000,-0.032680,
2025-10-24T08:07:13.298025+00:00,7.470000,-0.028880,
2025-10-24T08:07:13.303025+00:00,7.475000,-0.023940,
2025-10-24T08:07:13.308025+00:00,7.480000,-0.020900,
2025-10-24T08:07:13.313025+00:00,7.485000,-0.019380,
2025-10-24T08:07:13.318025+00:00,7.490000,-0.019380,
2025-10-24T08:07:13.323025+00:00,7.495000,-0.021660,
2025-10-24T08:07:13.328025+00:00,7.500000,-0.025080,
2025-10-24T08:07:13.333025+00:00,7.505000,-0.026980,
2025-10-24T08:07:13.338025+00:00,7.510000,-0.026600,
2025-10-24T08:07:13.343025+00:00,7.515000,-0.024700,
2025-10-24T08:07:13.348025+00:00,7.520000,-0.028120,
2025-10-24T08:07:13.353025+00:00,7.525000,-0.033820,
2025-10-24T08:07:13.358025+00:00,7.530000,-0.037620,
2025-10-24T08:07:13.363025+00:00,7.535000,-0.032680,
2025-10-24T08:07:13.368025+00:00,7.540000,-0.021660,
2025-10-24T08:07:13.373025+00:00,7.545000,-0.013300,
2025-10-24T08:07:13.378025+00:00,7.550000,-0.016340,
2025-10-24T08:07:13.383025+00:00,7.555000,-0.026980,
2025-10-24T08:07:13.388025+00:00,7.560000,-0.039140,
2025-10-24T08:07:13.393025+00:00,7.565000,-0.046360,
2025-10-24T08:07:13.398025+00:00,7.570000,-0.047500,
2025-10-24T08:07:13.403025+00:00,7.575000,-0.045600,
2025-10-24T08:07:13.408025+00:00,7.580000,-0.042180,
2025-10-24T08:07:13.413025+00:00,7.585000,-0.037620,
2025-10-24T08:07:13.418025+00:00,7.590000,-0.034960,
2025-10-24T08:07:13.423025+00:00,7.595000,-0.035720,
2025-10-24T08:07:13.428025+00:00,7.600000,-0.038000,
2025-10-24T08:07:13.433025+00:00,7.605000,-0.033820,
2025-10-24T08:07:13.438025+00:00,7.610000,-0.033440,
2025-10-24T08:07:13.443025+00:00,7.615000,-0.042560,
2025-10-24T08:07:13.448025+00:00,7.620000,-0.041420,
2025-10-24T08:07:13.453025+00:00,7.625000,0.007220,
2025-10-24T08:07:13.458025+00:00,7.630000,0.102600,
2025-10-24T08:07:13.463025+00:00,7.635000,0.187340,
2025-10-24T08:07:13.468025+00:00,7.640000,0.212420,
2025-10-24T08:07:13.473025+00:00,7.645000,0.203300,
2025-10-24T08:07:13.478025+00:00,7.650000,0.220400,
2025-10-24T08:07:13.483025+00:00,7.655000,0.247000,
2025-10-24T08:07:13.488025+00:00,7.660000,0.178600,
2025-10-24T08:07:13.493025+00:00,7.665000,-0.044840,
2025-10-24T08:07:13.498025+00:00,7.670000,-0.337440,
2025-10-24T08:07:13.503025+00:00,7.675000,-0.524780,
2025-10-24T08:07:13.508025+00:00,7.680000,-0.517560,
2025-10-24T08:07:13.513025+00:00,7.685000,-0.373920,
2025-10-24T08:07:13.518025+00:00,7.690000,-0.220780,
2025-10-24T08:07:13.523025+00:00,7.695000,-0.123120,
2025-10-24T08:07:13.528025+00:00,7.700000,-0.066880,
2025-10-24T08:07:13.533025+00:00,7.705000,-0.021660,
2025-10-24T08:07:13.538025+00:00,7.710000,0.017100,
2025-10-24T08:07:13.543025+00:00,7.715000,0.033820,
2025-10-24T08:07:13.548025+00:00,7.720000,0.032680,
2025-10-24T08:07:13.553025+00:00,7.725000,0.022040,
2025-10-24T08:07:13.558025+00:00,7.730000,0.012920,
2025-10-24T08:07:13.563025+00:00,7.735000,0.006460,
2025-10-24T08:07:13.568025+00:00,7.740000,0.002280,
2025-10-24T08:07:13.573025+00:00,7.745000,0.001900,
2025-10-24T08:07:13.578025+00:00,7.750000,-0.000760,
2025-10-24T08:07:13.583025+00:00,7.755000,-0.002280,
2025-10-24T08:07:13.588025+00:00,7.760000,-0.004180,
2025-10-24T08:07:13.593025+00:00,7.765000,-0.005320,
2025-10-24T08:07:13.598025+00:00,7.770000,-0.003800,
2025-10-24T08:07:13.603025+00:00,7.775000,0.000000,
2025-10-24T08:07:13.608025+00:00,7.780000,0.000760,
2025-10-24T08:07:13.613025+00:00,7.785000,-0.001900,
2025-10-24T08:07:13.618025+00:00,7.790000,-0.004560,
2025-10-24T08:07:13.623025+00:00,7.795000,-0.003420,
2025-10-24T08:07:13.628025+00:00,7.800000,-0.002280,
2025-10-24T08:07:13.633025+00:00,7.805000,-0.001140,
2025-10-24T08:07:13.638025+00:00,7.810000,-0.001520,
2025-10-24T08:07:13.643025+00:00,7.815000,0.000000,
2025-10-24T08:07:13.648025+00:00,7.820000,0.002280,
2025-10-24T08:07:13.653025+00:00,7.825000,0.004560,
2025-10-24T08:07:13.658025+00:00,7.830000,0.006840,
2025-10-24T08:07:13.663025+00:00,7.835000,0.009500,
2025-10-24T08:07:13.668025+00:00,7.840000,0.013680,
2025-10-24T08:07:13.673025+00:00,7.845000,0.015200,
2025-10-24T08:07:13.678025+00:00,7.850000,0.017100,
2025-10-24T08:07:13.683025+00:00,7.855000,0.021280,
2025-10-24T08:07:13.688025+00:00,7.860000,0.025080,
2025-10-24T08:07:13.693025+00:00,7.865000,0.026220,
2025-10-24T08:07:13.698025+00:00,7.870000,0.022420,
2025-10-24T08:07:13.703025+00:00,7.875000,0.019380,
2025-10-24T08:07:13.708025+00:00,7.880000,0.018620,
2025-10-24T08:07:13.713025+00:00,7.885000,0.017860,
2025-10-24T08:07:13.718025+00:00,7.890000,0.012160,
2025-10-24T08:07:13.723025+00:00,7.895000,0.002280,
2025-10-24T08:07:13.728025+00:00,7.900000,-0.009500,
2025-10-24T08:07:13.733025+00:00,7.905000,-0.020900,
2025-10-24T08:07:13.738025+00:00,7.910000,-0.034960,
2025-10-24T08:07:13.743025+00:00,7.915000,-0.054720,
2025-10-24T08:07:13.748025+00:00,7.920000,-0.077140,
2025-10-24T08:07:13.753025+00:00,7.925000,-0.101460,
2025-10-24T08:07:13.758025+00:00,7.930000,-0.124260,
2025-10-24T08:07:13.763025+00:00,7.935000,-0.145160,
2025-10-24T08:07:13.768025+00:00,7.940000,-0.164160,
2025-10-24T08:07:13.773025+00:00,7.945000,-0.176700,
2025-10-24T08:07:13.778025+00:00,7.950000,-0.184300,
2025-10-24T08:07:13.783025+00:00,7.955000,-0.184680,
2025-10-24T08:07:13.788025+00:00,7.960000,-0.177080,
2025-10-24T08:07:13.793025+00:00,7.965000,-0.165680,
2025-10-24T08:07:13.798025+00:00,7.970000,-0.152000,
2025-10-24T08:07:13.803025+00:00,7.975000,-0.138320,
2025-10-24T08:07:13.808025+00:00,7.980000,-0.123120,
2025-10-24T08:07:13.813025+00:00,7.985000,-0.109820,
2025-10-24T08:07:13.818025+00:00,7.990000,-0.096520,
2025-10-24T08:07:13.823025+00:00,7.995000,-0.082840,
2025-10-24T08:07:13.828025+00:00,8.000000,-0.071820,
2025-10-24T08:07:13.833025+00:00,8.005000,-0.062320,
2025-10-24T08:07:13.838025+00:00,8.010000,-0.055860,
2025-10-24T08:07:13.843025+00:00,8.015000,-0.050920,
2025-10-24T08:07:13.848025+00:00,8.020000,-0.045600,
2025-10-24T08:07:13.853025+00:00,8.025000,-0.040280,
2025-10-24T08:07:13.858025+00:00,8.030000,-0.036480,
2025-10-24T08:07:13.863025+00:00,8.035000,-0.035340,
2025-10-24T08:07:13.868025+00:00,8.040000,-0.034580,
2025-10-24T08:07:13.873025+00:00,8.045000,-0.030020,
2025-10-24T08:07:13.878025+00:00,8.050000,-0.023940,
2025-10-24T08:07:13.883025+00:00,8.055000,-0.019380,
2025-10-24T08:07:13.888025+00:00,8.060000,-0.019000,
2025-10-24T08:07:13.893025+00:00,8.065000,-0.022040,
2025-10-24T08:07:13.898025+00:00,8.070000,-0.025080,
2025-10-24T08:07:13.903025+00:00,8.075000,-0.025840,
2025-10-24T08:07:13.908025+00:00,8.080000,-0.025080,
2025-10-24T08:07:13.913025+00:00,8.085000,-0.025080,
2025-10-24T08:07:13.918025+00:00,8.090000,-0.025460,
2025-10-24T08:07:13.923025+00:00,8.095000,-0.026220,
2025-10-24T08:07:13.928025+00:00,8.100000,-0.028500,
2025-10-24T08:07:13.933025+00:00,8.105000,-0.030400,
2025-10-24T08:07:13.938025+00:00,8.110000,-0.031160,
2025-10-24T08:07:13.943025+00:00,8.115000,-0.030400,
2025-10-24T08:07:13.948025+00:00,8.120000,-0.031160,
2025-10-24T08:07:13.953025+00:00,8.125000,-0.033440,
2025-10-24T08:07:13.958025+00:00,8.130000,-0.035720,
2025-10-24T08:07:13.963025+00:00,8.135000,-0.037240,
2025-10-24T08:07:13.968025+00:00,8.140000,-0.037620,
2025-10-24T08:07:13.973025+00:00,8.145000,-0.037620,
2025-10-24T08:07:13.978025+00:00,8.150000,-0.036860,
2025-10-24T08:07:13.983025+00:00,8.155000,-0.036860,
2025-10-24T08:07:13.988025+00:00,8.160000,-0.037240,
2025-10-24T08:07:13.993025+00:00,8.165000,-0.036860,
2025-10-24T08:07:13.998025+00:00,8.170000,-0.034580,
2025-10-24T08:07:14.003025+00:00,8.175000,-0.031160,
2025-10-24T08:07:14.008025+00:00,8.180000,-0.030020,
2025-10-24T08:07:14.013025+00:00,8.185000,-0.031540,
2025-10-24T08:07:14.018025+00:00,8.190000,-0.034200,
2025-10-24T08:07:14.023025+00:00,8.195000,-0.033440,
2025-10-24T08:07:14.028025+00:00,8.200000,-0.031920,
2025-10-24T08:07:14.033025+00:00,8.205000,-0.030780,
2025-10-24T08:07:14.038025+00:00,8.210000,-0.031920,
2025-10-24T08:07:14.043025+00:00,8.215000,-0.034200,
2025-10-24T08:07:14.048025+00:00,8.220000,-0.034960,
2025-10-24T08:07:14.053025+00:00,8.225000,-0.033820,
2025-10-24T08:07:14.058025+00:00,8.230000,-0.033820,
2025-10-24T08:07:14.063025+00:00,8.235000,-0.033820,
2025-10-24T08:07:14.068025+00:00,8.240000,-0.033820,
2025-10-24T08:07:14.073025+00:00,8.245000,-0.034200,
2025-10-24T08:07:14.078025+00:00,8.250000,-0.031540,
2025-10-24T08:07:14.083025+00:00,8.255000,-0.029640,
2025-10-24T08:07:14.088025+00:00,8.260000,-0.029260,
2025-10-24T08:07:14.093025+00:00,8.265000,-0.031540,
2025-10-24T08:07:14.098025+00:00,8.270000,-0.032300,
2025-10-24T08:07:14.103025+00:00,8.275000,-0.031540,
2025-10-24T08:07:14.108025+00:00,8.280000,-0.028880,
2025-10-24T08:07:14.113025+00:00,8.285000,-0.027740,
2025-10-24T08:07:14.118025+00:00,8.290000,-0.029260,
2025-10-24T08:07:14.123025+00:00,8.295000,-0.029640,
2025-10-24T08:07:14.128025+00:00,8.300000,-0.028880,
2025-10-24T08:07:14.133025+00:00,8.305000,-0.030020,
2025-10-24T08:07:14.138025+00:00,8.310000,-0.031540,
2025-10-24T08:07:14.143025+00:00,8.315000,-0.031160,
2025-10-24T08:07:14.148025+00:00,8.320000,-0.030780,
2025-10-24T08:07:14.153025+00:00,8.325000,-0.030780,
2025-10-24T08:07:14.158025+00:00,8.330000,-0.031920,
2025-10-24T08:07:14.163025+00:00,8.335000,-0.030780,
2025-10-24T08:07:14.168025+00:00,8.340000,-0.028120,
2025-10-24T08:07:14.173025+00:00,8.345000,-0.025080,
2025-10-24T08:07:14.178025+00:00,8.350000,-0.025460,
2025-10-24T08:07:14.183025+00:00,8.355000,-0.026220,
2025-10-24T08:07:14.188025+00:00,8.360000,-0.028880,
2025-10-24T08:07:14.193025+00:00,8.365000,-0.031160,
2025-10-24T08:07:14.198025+00:00,8.370000,-0.031160,
2025-10-24T08:07:14.203025+00:00,8.375000,-0.028880,
2025-10-24T08:07:14.208025+00:00,8.380000,-0.026980,
2025-10-24T08:07:14.213025+00:00,8.385000,-0.027360,
2025-10-24T08:07:14.218025+00:00,8.390000,-0.029260,
2025-10-24T08:07:14.223025+00:00,8.395000,-0.030780,
2025-10-24T08:07:14.228025+00:00,8.400000,-0.029260,
2025-10-24T08:07:14.233025+00:00,8.405000,-0.026980,
2025-10-24T08:07:14.238025+00:00,8.410000,-0.025840,
2025-10-24T08:07:14.243025+00:00,8.415000,-0.026600,
2025-10-24T08:07:14.248025+00:00,8.420000,-0.028880,
2025-10-24T08:07:14.253025+00:00,8.425000,-0.029260,
2025-10-24T08:07:14.258025+00:00,8.430000,-0.028500,
2025-10-24T08:07:14.263025+00:00,8.435000,-0.026980,
2025-10-24T08:07:14.268025+00:00,8.440000,-0.028120,
2025-10-24T08:07:14.273025+00:00,8.445000,-0.031160,
2025-10-24T08:07:14.278025+00:00,8.450000,-0.032300,
2025-10-24T08:07:14.283025+00:00,8.455000,-0.031540,
2025-10-24T08:07:14.288025+00:00,8.460000,-0.028120,
2025-10-24T08:07:14.293025+00:00,8.465000,-0.026220,
2025-10-24T08:07:14.298025+00:00,8.470000,-0.026220,
2025-10-24T08:07:14.303025+00:00,8.475000,-0.024700,
2025-10-24T08:07:14.308025+00:00,8.480000,-0.022420,
2025-10-24T08:07:14.313025+00:00,8.485000,-0.019760,
2025-10-24T08:07:14.318025+00:00,8.490000,-0.018620,
2025-10-24T08:07:14.323025+00:00,8.495000,-0.022040,
2025-10-24T08:07:14.328025+00:00,8.500000,-0.023940,
2025-10-24T08:07:14.333025+00:00,8.505000,-0.026220,
2025-10-24T08:07:14.338025+00:00,8.510000,-0.027360,
2025-10-24T08:07:14.343025+00:00,8.515000,-0.027740,
2025-10-24T08:07:14.348025+00:00,8.520000,-0.030020,
2025-10-24T08:07:14.353025+00:00,8.525000,-0.030400,
2025-10-24T08:07:14.358025+00:00,8.530000,-0.028500,
2025-10-24T08:07:14.363025+00:00,8.535000,-0.023180,
2025-10-24T08:07:14.368025+00:00,8.540000,-0.017480,
2025-10-24T08:07:14.373025+00:00,8.545000,-0.016720,
2025-10-24T08:07:14.378025+00:00,8.550000,-0.023180,
2025-10-24T08:07:14.383025+00:00,8.555000,-0.033060,
2025-10-24T08:07:14.388025+00:00,8.560000,-0.040280,
2025-10-24T08:07:14.393025+00:00,8.565000,-0.044460,
2025-10-24T08:07:14.398025+00:00,8.570000,-0.044080,
2025-10-24T08:07:14.403025+00:00,8.575000,-0.041800,
2025-10-24T08:07:14.408025+00:00,8.580000,-0.039900,
2025-10-24T08:07:14.413025+00:00,8.585000,-0.039520,
2025-10-24T08:07:14.418025+00:00,8.590000,-0.041420,
2025-10-24T08:07:14.423025+00:00,8.595000,-0.042180,
2025-10-24T08:07:14.428025+00:00,8.600000,-0.036860,
2025-10-24T08:07:14.433025+00:00,8.605000,-0.028500,
2025-10-24T08:07:14.438025+00:00,8.610000,-0.032300,
2025-10-24T08:07:14.443025+00:00,8.615000,-0.044840,
2025-10-24T08:07:14.448025+00:00,8.620000,-0.034580,
2025-10-24T08:07:14.453025+00:00,8.625000,0.031160,
2025-10-24T08:07:14.458025+00:00,8.630000,0.128060,
2025-10-24T08:07:14.463025+00:00,8.635000,0.193420,
2025-10-24T08:07:14.468025+00:00,8.640000,0.201400,
2025-10-24T08:07:14.473025+00:00,8.645000,0.199120,
2025-10-24T08:07:14.478025+00:00,8.650000,0.232560,
2025-10-24T08:07:14.483025+00:00,8.655000,0.256120,
2025-10-24T08:07:14.488025+00:00,8.660000,0.159980,
2025-10-24T08:07:14.493025+00:00,8.665000,-0.088920,
2025-10-24T08:07:14.498025+00:00,8.670000,-0.375060,
2025-10-24T08:07:14.503025+00:00,8.675000,-0.528200,
2025-10-24T08:07:14.508025+00:00,8.680000,-0.491340,
2025-10-24T08:07:14.513025+00:00,8.685000,-0.345420,
2025-10-24T08:07:14.518025+00:00,8.690000,-0.206720,
2025-10-24T08:07:14.523025+00:00,8.695000,-0.120080,
2025-10-24T08:07:14.528025+00:00,8.700000,-0.063460,
2025-10-24T08:07:14.533025+00:00,8.705000,-0.013680,
2025-10-24T08:07:14.538025+00:00,8.710000,0.018620,
2025-10-24T08:07:14.543025+00:00,8.715000,0.029640,
2025-10-24T08:07:14.548025+00:00,8.720000,0.023940,
2025-10-24T08:07:14.553025+00:00,8.725000,0.015200,
2025-10-24T08:07:14.558025+00:00,8.730000,0.007600,
2025-10-24T08:07:14.563025+00:00,8.735000,0.006080,
2025-10-24T08:07:14.568025+00:00,8.740000,0.004940,
2025-10-24T08:07:14.573025+00:00,8.745000,0.003420,
2025-10-24T08:07:14.578025+00:00,8.750000,-0.002280,
2025-10-24T08:07:14.583025+00:00,8.755000,-0.004940,
2025-10-24T08:07:14.588025+00:00,8.760000,-0.004940,
2025-10-24T08:07:14.593025+00:00,8.765000,-0.003040,
2025-10-24T08:07:14.598025+00:00,8.770000,-0.003800,
2025-10-24T08:07:14.603025+00:00,8.775000,-0.004560,
2025-10-24T08:07:14.608025+00:00,8.780000,-0.005700,
2025-10-24T08:07:14.613025+00:00,8.785000,-0.004940,
2025-10-24T08:07:14.618025+00:00,8.790000,-0.005700,
2025-10-24T08:07:14.623025+00:00,8.795000,-0.004180,
2025-10-24T08:07:14.628025+00:00,8.800000,-0.003420,
2025-10-24T08:07:14.633025+00:00,8.805000,-0.001520,
2025-10-24T08:07:14.638025+00:00,8.810000,0.000760,
2025-10-24T08:07:14.643025+00:00,8.815000,0.003040,
2025-10-24T08:07:14.648025+00:00,8.820000,0.005700,
2025-10-24T08:07:14.653025+00:00,8.825000,0.007600,
2025-10-24T08:07:14.658025+00:00,8.830000,0.009880,
2025-10-24T08:07:14.663025+00:00,8.835000,0.010640,
2025-10-24T08:07:14.668025+00:00,8.840000,0.011400,
2025-10-24T08:07:14.673025+00:00,8.845000,0.011020,
2025-10-24T08:07:14.678025+00:00,8.850000,0.013680,
2025-10-24T08:07:14.683025+00:00,8.855000,0.015960,
2025-10-24T08:07:14.688025+00:00,8.860000,0.019000,
2025-10-24T08:07:14.693025+00:00,8.865000,0.020900,
2025-10-24T08:07:14.698025+00:00,8.870000,0.021660,
2025-10-24T08:07:14.703025+00:00,8.875000,0.019380,
2025-10-24T08:07:14.708025+00:00,8.880000,0.017100,
2025-10-24T08:07:14.713025+00:00,8.885000,0.013300,
2025-10-24T08:07:14.718025+00:00,8.890000,0.009120,
2025-10-24T08:07:14.723025+00:00,8.895000,-0.001140,
2025-10-24T08:07:14.728025+00:00,8.900000,-0.014820,
2025-10-24T08:07:14.733025+00:00,8.905000,-0.032300,
2025-10-24T08:07:14.738025+00:00,8.910000,-0.046740,
2025-10-24T08:07:14.743025+00:00,8.915000,-0.062320,
2025-10-24T08:07:14.748025+00:00,8.920000,-0.080180,
2025-10-24T08:07:14.753025+00:00,8.925000,-0.101840,
2025-10-24T08:07:14.758025+00:00,8.930000,-0.128060,
2025-10-24T08:07:14.763025+00:00,8.935000,-0.152760,
2025-10-24T08:07:14.768025+00:00,8.940000,-0.169860,
2025-10-24T08:07:14.773025+00:00,8.945000,-0.175940,
2025-10-24T08:07:14.778025+00:00,8.950000,-0.175560,
2025-10-24T08:07:14.783025+00:00,8.955000,-0.170240,
2025-10-24T08:07:14.788025+00:00,8.960000,-0.165680,
2025-10-24T08:07:14.793025+00:00,8.965000,-0.155420,
2025-10-24T08:07:14.798025+00:00,8.970000,-0.144020,
2025-10-24T08:07:14.803025+00:00,8.975000,-0.130720,
2025-10-24T08:07:14.808025+00:00,8.980000,-0.117040,
2025-10-24T08:07:14.813025+00:00,8.985000,-0.105260,
2025-10-24T08:07:14.818025+00:00,8.990000,-0.093860,
2025-10-24T08:07:14.823025+00:00,8.995000,-0.082080,
2025-10-24T08:07:14.828025+00:00,9.000000,-0.071820,
2025-10-24T08:07:14.833025+00:00,9.005000,-0.061180,
2025-10-24T08:07:14.838025+00:00,9.010000,-0.054720,
2025-10-24T08:07:14.843025+00:00,9.015000,-0.047880,
2025-10-24T08:07:14.848025+00:00,9.020000,-0.044840,
2025-10-24T08:07:14.853025+00:00,9.025000,-0.040280,
2025-10-24T08:07:14.858025+00:00,9.030000,-0.036480,
2025-10-24T08:07:14.863025+00:00,9.035000,-0.030780,
2025-10-24T08:07:14.868025+00:00,9.040000,-0.027360,
2025-10-24T08:07:14.873025+00:00,9.045000,-0.025080,
2025-10-24T08:07:14.878025+00:00,9.050000,-0.025080,
2025-10-24T08:07:14.883025+00:00,9.055000,-0.023940,
2025-10-24T08:07:14.888025+00:00,9.060000,-0.025080,
2025-10-24T08:07:14.893025+00:00,9.065000,-0.026220,
2025-10-24T08:07:14.898025+00:00,9.070000,-0.028880,
2025-10-24T08:07:14.903025+00:00,9.075000,-0.026980,
2025-10-24T08:07:14.908025+00:00,9.080000,-0.025080,
2025-10-24T08:07:14.913025+00:00,9.085000,-0.023560,
2025-10-24T08:07:14.918025+00:00,9.090000,-0.024700,
2025-10-24T08:07:14.923025+00:00,9.095000,-0.026220,
2025-10-24T08:07:14.928025+00:00,9.100000,-0.026600,
2025-10-24T08:07:14.933025+00:00,9.105000,-0.028120,
2025-10-24T08:07:14.938025+00:00,9.110000,-0.031160,
2025-10-24T08:07:14.943025+00:00,9.115000,-0.033060,
2025-10-24T08:07:14.948025+00:00,9.120000,-0.033060,
2025-10-24T08:07:14.953025+00:00,9.125000,-0.031540,
2025-10-24T08:07:14.958025+00:00,9.130000,-0.031920,
2025-10-24T08:07:14.963025+00:00,9.135000,-0.035340,
2025-10-24T08:07:14.968025+00:00,9.140000,-0.039140,
2025-10-24T08:07:14.973025+00:00,9.145000,-0.038760,
2025-10-24T08:07:14.978025+00:00,9.150000,-0.034580,
2025-10-24T08:07:14.983025+00:00,9.155000,-0.031540,
2025-10-24T08:07:14.988025+00:00,9.160000,-0.033440,
2025-10-24T08:07:14.993025+00:00,9.165000,-0.035340,
2025-10-24T08:07:14.998025+00:00,9.170000,-0.035720,
2025-10-24T08:07:15.003025+00:00,9.175000,-0.034200,
2025-10-24T08:07:15.008025+00:00,9.180000,-0.032680,
2025-10-24T08:07:15.013025+00:00,9.185000,-0.033440,
2025-10-24T08:07:15.018025+00:00,9.190000,-0.034200,
2025-10-24T08:07:15.023025+00:00,9.195000,-0.033820,
2025-10-24T08:07:15.028025+00:00,9.200000,-0.032680,
2025-10-24T08:07:15.033025+00:00,9.205000,-0.031920,
2025-10-24T08:07:15.038025+00:00,9.210000,-0.031160,
2025-10-24T08:07:15.043025+00:00,9.215000,-0.031540,
2025-10-24T08:07:15.048025+00:00,9.220000,-0.031160,
2025-10-24T08:07:15.053025+00:00,9.225000,-0.030780,
2025-10-24T08:07:15.058025+00:00,9.230000,-0.030400,
2025-10-24T08:07:15.063025+00:00,9.235000,-0.030020,
2025-10-24T08:07:15.068025+00:00,9.240000,-0.031540,
2025-10-24T08:07:15.073025+00:00,9.245000,-0.032300,
2025-10-24T08:07:15.078025+00:00,9.250000,-0.033060,
2025-10-24T08:07:15.083025+00:00,9.255000,-0.033440,
2025-10-24T08:07:15.088025+00:00,9.260000,-0.032680,
2025-10-24T08:07:15.093025+00:00,9.265000,-0.028880,
2025-10-24T08:07:15.098025+00:00,9.270000,-0.025460,
2025-10-24T08:07:15.103025+00:00,9.275000,-0.024700,
2025-10-24T08:07:15.108025+00:00,9.280000,-0.027360,
2025-10-24T08:07:15.113025+00:00,9.285000,-0.029640,
2025-10-24T08:07:15.118025+00:00,9.290000,-0.030780,
2025-10-24T08:07:15.123025+00:00,9.295000,-0.030020,
2025-10-24T08:07:15.128025+00:00,9.300000,-0.029260,
2025-10-24T08:07:15.133025+00:00,9.305000,-0.029260,
2025-10-24T08:07:15.138025+00:00,9.310000,-0.028500,
2025-10-24T08:07:15.143025+00:00,9.315000,-0.030020,
2025-10-24T08:07:15.148025+00:00,9.320000,-0.030780,
2025-10-24T08:07:15.153025+00:00,9.325000,-0.030020,
2025-10-24T08:07:15.158025+00:00,9.330000,-0.027740,
2025-10-24T08:07:15.163025+00:00,9.335000,-0.028120,
2025-10-24T08:07:15.168025+00:00,9.340000,-0.027360,
2025-10-24T08:07:15.173025+00:00,9.345000,-0.026220,
2025-10-24T08:07:15.178025+00:00,9.350000,-0.023560,
2025-10-24T08:07:15.183025+00:00,9.355000,-0.023560,
2025-10-24T08:07:15.188025+00:00,9.360000,-0.025080,
2025-10-24T08:07:15.193025+00:00,9.365000,-0.028500,
2025-10-24T08:07:15.198025+00:00,9.370000,-0.030400,
2025-10-24T08:07:15.203025+00:00,9.375000,-0.031540,
2025-10-24T08:07:15.208025+00:00,9.380000,-0.030400,
2025-10-24T08:07:15.213025+00:00,9.385000,-0.028120,
2025-10-24T08:07:15.218025+00:00,9.390000,-0.026600,
2025-10-24T08:07:15.223025+00:00,9.395000,-0.025840,
2025-10-24T08:07:15.228025+00:00,9.400000,-0.028120,
2025-10-24T08:07:15.233025+00:00,9.405000,-0.031160,
2025-10-24T08:07:15.238025+00:00,9.410000,-0.033060,
2025-10-24T08:07:15.243025+00:00,9.415000,-0.033440,
2025-10-24T08:07:15.248025+00:00,9.420000,-0.032300,
2025-10-24T08:07:15.253025+00:00,9.425000,-0.031540,
2025-10-24T08:07:15.258025+00:00,9.430000,-0.030400,
2025-10-24T08:07:15.263025+00:00,9.435000,-0.032300,
2025-10-24T08:07:15.268025+00:00,9.440000,-0.033440,
2025-10-24T08:07:15.273025+00:00,9.445000,-0.033440,
2025-10-24T08:07:15.278025+00:00,9.450000,-0.030020,
2025-10-24T08:07:15.283025+00:00,9.455000,-0.026980,
2025-10-24T08:07:15.288025+00:00,9.460000,-0.026220,
2025-10-24T08:07:15.293025+00:00,9.465000,-0.027740,
2025-10-24T08:07:15.298025+00:00,9.470000,-0.030020,
2025-10-24T08:07:15.303025+00:00,9.475000,-0.032300,
2025-10-24T08:07:15.308025+00:00,9.480000,-0.032300,
2025-10-24T08:07:15.313025+00:00,9.485000,-0.030780,
2025-10-24T08:07:15.318025+00:00,9.490000,-0.028500,
2025-10-24T08:07:15.323025+00:00,9.495000,-0.027360,
2025-10-24T08:07:15.328025+00:00,9.500000,-0.028500,
2025-10-24T08:07:15.333025+00:00,9.505000,-0.029640,
2025-10-24T08:07:15.338025+00:00,9.510000,-0.029640,
2025-10-24T08:07:15.343025+00:00,9.515000,-0.027740,
2025-10-24T08:07:15.348025+00:00,9.520000,-0.028500,
2025-10-24T08:07:15.353025+00:00,9.525000,-0.031160,
2025-10-24T08:07:15.358025+00:00,9.530000,-0.030400,
2025-10-24T08:07:15.363025+00:00,9.535000,-0.030020,
2025-10-24T08:07:15.368025+00:00,9.540000,-0.030400,
2025-10-24T08:07:15.373025+00:00,9.545000,-0.033060,
2025-10-24T08:07:15.378025+00:00,9.550000,-0.031160,
2025-10-24T08:07:15.383025+00:00,9.555000,-0.025080,
2025-10-24T08:07:15.388025+00:00,9.560000,-0.017480,
2025-10-24T08:07:15.393025+00:00,9.565000,-0.017860,
2025-10-24T08:07:15.398025+00:00,9.570000,-0.020140,
2025-10-24T08:07:15.403025+00:00,9.575000,-0.024320,
2025-10-24T08:07:15.408025+00:00,9.580000,-0.025460,
2025-10-24T08:07:15.413025+00:00,9.585000,-0.026600,
2025-10-24T08:07:15.418025+00:00,9.590000,-0.029260,
2025-10-24T08:07:15.423025+00:00,9.595000,-0.032300,
2025-10-24T08:07:15.428025+00:00,9.600000,-0.032680,
2025-10-24T08:07:15.433025+00:00,9.605000,-0.030020,
2025-10-24T08:07:15.438025+00:00,9.610000,-0.023560,
2025-10-24T08:07:15.443025+00:00,9.615000,-0.019000,
2025-10-24T08:07:15.448025+00:00,9.620000,-0.019380,
2025-10-24T08:07:15.453025+00:00,9.625000,-0.027740,
2025-10-24T08:07:15.458025+00:00,9.630000,-0.036100,
2025-10-24T08:07:15.463025+00:00,9.635000,-0.041800,
2025-10-24T08:07:15.468025+00:00,9.640000,-0.043700,
2025-10-24T08:07:15.473025+00:00,9.645000,-0.044460,
2025-10-24T08:07:15.478025+00:00,9.650000,-0.043320,
2025-10-24T08:07:15.483025+00:00,9.655000,-0.040660,
2025-10-24T08:07:15.488025+00:00,9.660000,-0.037240,
2025-10-24T08:07:15.493025+00:00,9.665000,-0.036860,
2025-10-24T08:07:15.498025+00:00,9.670000,-0.036480,
2025-10-24T08:07:15.503025+00:00,9.675000,-0.033060,
2025-10-24T08:07:15.508025+00:00,9.680000,-0.032300,
2025-10-24T08:07:15.513025+00:00,9.685000,-0.041040,
2025-10-24T08:07:15.518025+00:00,9.690000,-0.041420,
2025-10-24T08:07:15.523025+00:00,9.695000,0.001900,
2025-10-24T08:07:15.528025+00:00,9.700000,0.090440,
2025-10-24T08:07:15.533025+00:00,9.705000,0.173660,
2025-10-24T08:07:15.538025+00:00,9.710000,0.199120,
2025-10-24T08:07:15.543025+00:00,9.715000,0.191140,
2025-10-24T08:07:15.548025+00:00,9.720000,0.211660,
2025-10-24T08:07:15.553025+00:00,9.725000,0.256880,
2025-10-24T08:07:15.558025+00:00,9.730000,0.226100,
2025-10-24T08:07:15.563025+00:00,9.735000,0.037240,
2025-10-24T08:07:15.568025+00:00,9.740000,-0.251180,
2025-10-24T08:07:15.573025+00:00,9.745000,-0.474240,
2025-10-24T08:07:15.578025+00:00,9.750000,-0.514900,
2025-10-24T08:07:15.583025+00:00,9.755000,-0.406980,
2025-10-24T08:07:15.588025+00:00,9.760000,-0.264100,
2025-10-24T08:07:15.593025+00:00,9.765000,-0.163400,
2025-10-24T08:07:15.598025+00:00,9.770000,-0.098800,
2025-10-24T08:07:15.603025+00:00,9.775000,-0.042560,
2025-10-24T08:07:15.608025+00:00,9.780000,0.001140,
2025-10-24T08:07:15.613025+00:00,9.785000,0.022040,
2025-10-24T08:07:15.618025+00:00,9.790000,0.022420,
2025-10-24T08:07:15.623025+00:00,9.795000,0.015200,
2025-10-24T08:07:15.628025+00:00,9.800000,0.010260,
2025-10-24T08:07:15.633025+00:00,9.805000,0.005700,
2025-10-24T08:07:15.638025+00:00,9.810000,0.001140,
2025-10-24T08:07:15.643025+00:00,9.815000,-0.002660,
2025-10-24T08:07:15.648025+00:00,9.820000,-0.003800,
2025-10-24T08:07:15.653025+00:00,9.825000,-0.003420,
2025-10-24T08:07:15.658025+00:00,9.830000,-0.001900,
2025-10-24T08:07:15.663025+00:00,9.835000,-0.002660,
2025-10-24T08:07:15.668025+00:00,9.840000,-0.003420,
2025-10-24T08:07:15.673025+00:00,9.845000,-0.004560,
2025-10-24T08:07:15.678025+00:00,9.850000,-0.003420,
2025-10-24T08:07:15.683025+00:00,9.855000,-0.003420,
2025-10-24T08:07:15.688025+00:00,9.860000,-0.006840,
2025-10-24T08:07:15.693025+00:00,9.865000,-0.008740,
2025-10-24T08:07:15.698025+00:00,9.870000,-0.005700,
2025-10-24T08:07:15.703025+00:00,9.875000,-0.002660,
2025-10-24T08:07:15.708025+00:00,9.880000,-0.000380,
2025-10-24T08:07:15.713025+00:00,9.885000,0.001900,
2025-10-24T08:07:15.718025+00:00,9.890000,0.003800,
2025-10-24T08:07:15.723025+00:00,9.895000,0.006080,
2025-10-24T08:07:15.728025+00:00,9.900000,0.005320,
2025-10-24T08:07:15.733025+00:00,9.905000,0.006840,
2025-10-24T08:07:15.738025+00:00,9.910000,0.009880,
2025-10-24T08:07:15.743025+00:00,9.915000,0.016720,
2025-10-24T08:07:15.748025+00:00,9.920000,0.020900,
2025-10-24T08:07:15.753025+00:00,9.925000,0.021660,
2025-10-24T08:07:15.758025+00:00,9.930000,0.020140,
2025-10-24T08:07:15.763025+00:00,9.935000,0.020140,
2025-10-24T08:07:15.768025+00:00,9.940000,0.021660,
2025-10-24T08:07:15.773025+00:00,9.945000,0.022040,
2025-10-24T08:07:15.778025+00:00,9.950000,0.019000,
2025-10-24T08:07:15.783025+00:00,9.955000,0.012540,
2025-10-24T08:07:15.788025+00:00,9.960000,0.006460,
2025-10-24T08:07:15.793025+00:00,9.965000,0.000760,
2025-10-24T08:07:15.798025+00:00,9.970000,-0.004560,
2025-10-24T08:07:15.803025+00:00,9.975000,-0.014060,
2025-10-24T08:07:15.808025+00:00,9.980000,-0.027360,
2025-10-24T08:07:15.813025+00:00,9.985000,-0.044840,
2025-10-24T08:07:15.818025+00:00,9.990000,-0.065360,
2025-10-24T08:07:15.823025+00:00,9.995000,-0.088160,
2025-10-24T08:07:15.828025+00:00,10.000000,-0.113620,
2025-10-24T08:07:15.833025+00:00,10.005000,-0.137180,
2025-10-24T08:07:15.838025+00:00,10.010000,-0.158840,
2025-10-24T08:07:15.843025+00:00,10.015000,-0.172140,
2025-10-24T08:07:15.848025+00:00,10.020000,-0.177460,
2025-10-24T08:07:15.853025+00:00,10.025000,-0.176320,
2025-10-24T08:07:15.858025+00:00,10.030000,-0.171380,
2025-10-24T08:07:15.863025+00:00,10.035000,-0.161500,
2025-10-24T08:07:15.868025+00:00,10.040000,-0.150100,
2025-10-24T08:07:15.873025+00:00,10.045000,-0.136420,
2025-10-24T08:07:15.878025+00:00,10.050000,-0.125400,
2025-10-24T08:07:15.883025+00:00,10.055000,-0.113620,
2025-10-24T08:07:15.888025+00:00,10.060000,-0.102220,
2025-10-24T08:07:15.893025+00:00,10.065000,-0.088160,
2025-10-24T08:07:15.898025+00:00,10.070000,-0.074480,
2025-10-24T08:07:15.903025+00:00,10.075000,-0.063460,
2025-10-24T08:07:15.908025+00:00,10.080000,-0.054720,
2025-10-24T08:07:15.913025+00:00,10.085000,-0.047500,
2025-10-24T08:07:15.918025+00:00,10.090000,-0.042940,
2025-10-24T08:07:15.923025+00:00,10.095000,-0.040280,
2025-10-24T08:07:15.928025+00:00,10.100000,-0.039140,
2025-10-24T08:07:15.933025+00:00,10.105000,-0.038380,
2025-10-24T08:07:15.938025+00:00,10.110000,-0.034960,
2025-10-24T08:07:15.943025+00:00,10.115000,-0.028880,
2025-10-24T08:07:15.948025+00:00,10.120000,-0.025460,
2025-10-24T08:07:15.953025+00:00,10.125000,-0.025080,
2025-10-24T08:07:15.958025+00:00,10.130000,-0.025840,
2025-10-24T08:07:15.963025+00:00,10.135000,-0.026220,
2025-10-24T08:07:15.968025+00:00,10.140000,-0.024320,
2025-10-24T08:07:15.973025+00:00,10.145000,-0.024700,
2025-10-24T08:07:15.978025+00:00,10.150000,-0.022800,
2025-10-24T08:07:15.983025+00:00,10.155000,-0.021280,
2025-10-24T08:07:15.988025+00:00,10.160000,-0.020520,
2025-10-24T08:07:15.993025+00:00,10.165000,-0.022040,
2025-10-24T08:07:15.998025+00:00,10.170000,-0.026600,
2025-10-24T08:07:16.003025+00:00,10.175000,-0.030020,
2025-10-24T08:07:16.008025+00:00,10.180000,-0.031540,
2025-10-24T08:07:16.013025+00:00,10.185000,-0.031540,
2025-10-24T08:07:16.018025+00:00,10.190000,-0.031160,
2025-10-24T08:07:16.023025+00:00,10.195000,-0.031540,
2025-10-24T08:07:16.028025+00:00,10.200000,-0.030400,
2025-10-24T08:07:16.033025+00:00,10.205000,-0.029640,
2025-10-24T08:07:16.038025+00:00,10.210000,-0.031540,
2025-10-24T08:07:16.043025+00:00,10.215000,-0.034200,
2025-10-24T08:07:16.048025+00:00,10.220000,-0.037240,
2025-10-24T08:07:16.053025+00:00,10.225000,-0.039520,
2025-10-24T08:07:16.058025+00:00,10.230000,-0.038760,
2025-10-24T08:07:16.063025+00:00,10.235000,-0.036860,
2025-10-24T08:07:16.068025+00:00,10.240000,-0.034580,
2025-10-24T08:07:16.073025+00:00,10.245000,-0.033820,
2025-10-24T08:07:16.078025+00:00,10.250000,-0.034960,
2025-10-24T08:07:16.083025+00:00,10.255000,-0.037620,
2025-10-24T08:07:16.088025+00:00,10.260000,-0.037620,
2025-10-24T08:07:16.093025+00:00,10.265000,-0.034580,
2025-10-24T08:07:16.098025+00:00,10.270000,-0.031160,
2025-10-24T08:07:16.103025+00:00,10.275000,-0.031160,
2025-10-24T08:07:16.108025+00:00,10.280000,-0.030780,
2025-10-24T08:07:16.113025+00:00,10.285000,-0.030780,
2025-10-24T08:07:16.118025+00:00,10.290000,-0.031540,
2025-10-24T08:07:16.123025+00:00,10.295000,-0.034200,
2025-10-24T08:07:16.128025+00:00,10.300000,-0.036860,
2025-10-24T08:07:16.133025+00:00,10.305000,-0.036480,
2025-10-24T08:07:16.138025+00:00,10.310000,-0.033060,
2025-10-24T08:07:16.143025+00:00,10.315000,-0.028500,
2025-10-24T08:07:16.148025+00:00,10.320000,-0.026600,
2025-10-24T08:07:16.153025+00:00,10.325000,-0.027360,
2025-10-24T08:07:16.158025+00:00,10.330000,-0.029640,
2025-10-24T08:07:16.163025+00:00,10.335000,-0.030400,
2025-10-24T08:07:16.168025+00:00,10.340000,-0.030400,
2025-10-24T08:07:16.173025+00:00,10.345000,-0.030020,
2025-10-24T08:07:16.178025+00:00,10.350000,-0.030400,
2025-10-24T08:07:16.183025+00:00,10.355000,-0.030400,
2025-10-24T08:07:16.188025+00:00,10.360000,-0.030400,
2025-10-24T08:07:16.193025+00:00,10.365000,-0.031160,
2025-10-24T08:07:16.198025+00:00,10.370000,-0.031920,
2025-10-24T08:07:16.203025+00:00,10.375000,-0.031920,
2025-10-24T08:07:16.208025+00:00,10.380000,-0.030780,
2025-10-24T08:07:16.213025+00:00,10.385000,-0.030020,
2025-10-24T08:07:16.218025+00:00,10.390000,-0.030020,
2025-10-24T08:07:16.223025+00:00,10.395000,-0.030400,
2025-10-24T08:07:16.228025+00:00,10.400000,-0.028880,
2025-10-24T08:07:16.233025+00:00,10.405000,-0.027360,
2025-10-24T08:07:16.238025+00:00,10.410000,-0.026600,
2025-10-24T08:07:16.243025+00:00,10.415000,-0.026980,
2025-10-24T08:07:16.248025+00:00,10.420000,-0.026980,
2025-10-24T08:07:16.253025+00:00,10.425000,-0.029260,
2025-10-24T08:07:16.258025+00:00,10.430000,-0.031160,
2025-10-24T08:07:16.263025+00:00,10.435000,-0.033440,
2025-10-24T08:07:16.268025+00:00,10.440000,-0.033440,
2025-10-24T08:07:16.273025+00:00,10.445000,-0.032300,
2025-10-24T08:07:16.278025+00:00,10.450000,-0.031920,
2025-10-24T08:07:16.283025+00:00,10.455000,-0.032680,
2025-10-24T08:07:16.288025+00:00,10.460000,-0.032300,
2025-10-24T08:07:16.293025+00:00,10.465000,-0.030780,
2025-10-24T08:07:16.298025+00:00,10.470000,-0.026220,
2025-10-24T08:07:16.303025+00:00,10.475000,-0.024320,
2025-10-24T08:07:16.308025+00:00,10.480000,-0.025460,
2025-10-24T08:07:16.313025+00:00,10.485000,-0.027360,
2025-10-24T08:07:16.318025+00:00,10.490000,-0.030020,
2025-10-24T08:07:16.323025+00:00,10.495000,-0.031160,
2025-10-24T08:07:16.328025+00:00,10.500000,-0.031160,
2025-10-24T08:07:16.333025+00:00,10.505000,-0.029260,
2025-10-24T08:07:16.338025+00:00,10.510000,-0.027740,
2025-10-24T08:07:16.343025+00:00,10.515000,-0.029640,
2025-10-24T08:07:16.348025+00:00,10.520000,-0.030780,
2025-10-24T08:07:16.353025+00:00,10.525000,-0.031160,
2025-10-24T08:07:16.358025+00:00,10.530000,-0.031160,
2025-10-24T08:07:16.363025+00:00,10.535000,-0.029640,
2025-10-24T08:07:16.368025+00:00,10.540000,-0.026980,
2025-10-24T08:07:16.373025+00:00,10.545000,-0.024700,
2025-10-24T08:07:16.378025+00:00,10.550000,-0.025840,
2025-10-24T08:07:16.383025+00:00,10.555000,-0.028880,
2025-10-24T08:07:16.388025+00:00,10.560000,-0.030400,
2025-10-24T08:07:16.393025+00:00,10.565000,-0.029640,
2025-10-24T08:07:16.398025+00:00,10.570000,-0.028120,
2025-10-24T08:07:16.403025+00:00,10.575000,-0.028500,
2025-10-24T08:07:16.408025+00:00,10.580000,-0.030780,
2025-10-24T08:07:16.413025+00:00,10.585000,-0.031160,
2025-10-24T08:07:16.418025+00:00,10.590000,-0.030020,
2025-10-24T08:07:16.423025+00:00,10.595000,-0.028120,
2025-10-24T08:07:16.428025+00:00,10.600000,-0.027360,
2025-10-24T08:07:16.433025+00:00,10.605000,-0.028500,
2025-10-24T08:07:16.438025+00:00,10.610000,-0.030020,
2025-10-24T08:07:16.443025+00:00,10.615000,-0.031540,
2025-10-24T08:07:16.448025+00:00,10.620000,-0.030780,
2025-10-24T08:07:16.453025+00:00,10.625000,-0.025460,
2025-10-24T08:07:16.458025+00:00,10.630000,-0.021280,
2025-10-24T08:07:16.463025+00:00,10.635000,-0.019000,
2025-10-24T08:07:16.468025+00:00,10.640000,-0.021280,
2025-10-24T08:07:16.473025+00:00,10.645000,-0.024700,
2025-10-24T08:07:16.478025+00:00,10.650000,-0.027360,
2025-10-24T08:07:16.483025+00:00,10.655000,-0.028120,
2025-10-24T08:07:16.488025+00:00,10.660000,-0.027740,
2025-10-24T08:07:16.493025+00:00,10.665000,-0.027740,
2025-10-24T08:07:16.498025+00:00,10.670000,-0.028880,
2025-10-24T08:07:16.503025+00:00,10.675000,-0.030400,
2025-10-24T08:07:16.508025+00:00,10.680000,-0.025840,
2025-10-24T08:07:16.513025+00:00,10.685000,-0.016720,
2025-10-24T08:07:16.518025+00:00,10.690000,-0.012160,
2025-10-24T08:07:16.523025+00:00,10.695000,-0.017860,
2025-10-24T08:07:16.528025+00:00,10.700000,-0.033060,
2025-10-24T08:07:16.533025+00:00,10.705000,-0.043700,
2025-10-24T08:07:16.538025+00:00,10.710000,-0.047500,
2025-10-24T08:07:16.543025+00:00,10.715000,-0.046740,
2025-10-24T08:07:16.548025+00:00,10.720000,-0.045600,
2025-10-24T08:07:16.553025+00:00,10.725000,-0.044080,
2025-10-24T08:07:16.558025+00:00,10.730000,-0.041420,
2025-10-24T08:07:16.563025+00:00,10.735000,-0.038380,
2025-10-24T08:07:16.568025+00:00,10.740000,-0.036860,
2025-10-24T08:07:16.573025+00:00,10.745000,-0.033820,
2025-10-24T08:07:16.578025+00:00,10.750000,-0.030780,
2025-10-24T08:07:16.583025+00:00,10.755000,-0.036860,
2025-10-24T08:07:16.588025+00:00,10.760000,-0.045600,
2025-10-24T08:07:16.593025+00:00,10.765000,-0.021280,
2025-10-24T08:07:16.598025+00:00,10.770000,0.054720,
2025-10-24T08:07:16.603025+00:00,10.775000,0.147820,
2025-10-24T08:07:16.608025+00:00,10.780000,0.197980,
2025-10-24T08:07:16.613025+00:00,10.785000,0.201020,
2025-10-24T08:07:16.618025+00:00,10.790000,0.209000,
2025-10-24T08:07:16.623025+00:00,10.795000,0.248520,
2025-10-24T08:07:16.628025+00:00,10.800000,0.249660,
2025-10-24T08:07:16.633025+00:00,10.805000,0.109440,
2025-10-24T08:07:16.638025+00:00,10.810000,-0.163020,
2025-10-24T08:07:16.643025+00:00,10.815000,-0.426360,
2025-10-24T08:07:16.648025+00:00,10.820000,-0.530860,
2025-10-24T08:07:16.653025+00:00,10.825000,-0.458280,
2025-10-24T08:07:16.658025+00:00,10.830000,-0.308180,
2025-10-24T08:07:16.663025+00:00,10.835000,-0.183160,
2025-10-24T08:07:16.668025+00:00,10.840000,-0.106780,
2025-10-24T08:07:16.673025+00:00,10.845000,-0.053580,
2025-10-24T08:07:16.678025+00:00,10.850000,-0.007980,
2025-10-24T08:07:16.683025+00:00,10.855000,0.018240,
2025-10-24T08:07:16.688025+00:00,10.860000,0.022420,
2025-10-24T08:07:16.693025+00:00,10.865000,0.015960,
2025-10-24T08:07:16.698025+00:00,10.870000,0.009500,
2025-10-24T08:07:16.703025+00:00,10.875000,0.005320,
2025-10-24T08:07:16.708025+00:00,10.880000,0.004940,
2025-10-24T08:07:16.713025+00:00,10.885000,0.002660,
2025-10-24T08:07:16.718025+00:00,10.890000,0.000000,
2025-10-24T08:07:16.723025+00:00,10.895000,-0.003420,
2025-10-24T08:07:16.728025+00:00,10.900000,-0.004560,
2025-10-24T08:07:16.733025+00:00,10.905000,-0.005700,
2025-10-24T08:07:16.738025+00:00,10.910000,-0.007600,
2025-10-24T08:07:16.743025+00:00,10.915000,-0.009120,
2025-10-24T08:07:16.748025+00:00,10.920000,-0.010640,
2025-10-24T08:07:16.753025+00:00,10.925000,-0.009880,
2025-10-24T08:07:16.758025+00:00,10.930000,-0.007220,
2025-10-24T08:07:16.763025+00:00,10.935000,-0.003800,
2025-10-24T08:07:16.768025+00:00,10.940000,-0.001900,
2025-10-24T08:07:16.773025+00:00,10.945000,-0.000760,
2025-10-24T08:07:16.778025+00:00,10.950000,-0.000760,
2025-10-24T08:07:16.783025+00:00,10.955000,0.002660,
2025-10-24T08:07:16.788025+00:00,10.960000,0.003800,
2025-10-24T08:07:16.793025+00:00,10.965000,0.006080,
2025-10-24T08:07:16.798025+00:00,10.970000,0.008360,
2025-10-24T08:07:16.803025+00:00,10.975000,0.010640,
2025-10-24T08:07:16.808025+00:00,10.980000,0.010640,
2025-10-24T08:07:16.813025+00:00,10.985000,0.010640,
2025-10-24T08:07:16.818025+00:00,10.990000,0.011400,
2025-10-24T08:07:16.823025+00:00,10.995000,0.015200,
2025-10-24T08:07:16.828025+00:00,11.000000,0.020140,
2025-10-24T08:07:16.833025+00:00,11.005000,0.023940,
2025-10-24T08:07:16.838025+00:00,11.010000,0.025080,
2025-10-24T08:07:16.843025+00:00,11.015000,0.024320,
2025-10-24T08:07:16.848025+00:00,11.020000,0.021280,
2025-10-24T08:07:16.853025+00:00,11.025000,0.016720,
2025-10-24T08:07:16.858025+00:00,11.030000,0.012540,
2025-10-24T08:07:16.863025+00:00,11.035000,0.004560,
2025-10-24T08:07:16.868025+00:00,11.040000,-0.005700,
2025-10-24T08:07:16.873025+00:00,11.045000,-0.016720,
2025-10-24T08:07:16.878025+00:00,11.050000,-0.029260,
2025-10-24T08:07:16.883025+00:00,11.055000,-0.042940,
2025-10-24T08:07:16.888025+00:00,11.060000,-0.061560,
2025-10-24T08:07:16.893025+00:00,11.065000,-0.082840,
2025-10-24T08:07:16.898025+00:00,11.070000,-0.104120,
2025-10-24T08:07:16.903025+00:00,11.075000,-0.122740,
2025-10-24T08:07:16.908025+00:00,11.080000,-0.140220,
2025-10-24T08:07:16.913025+00:00,11.085000,-0.158840,
2025-10-24T08:07:16.918025+00:00,11.090000,-0.173280,
2025-10-24T08:07:16.923025+00:00,11.095000,-0.179360,
2025-10-24T08:07:16.928025+00:00,11.100000,-0.177460,
2025-10-24T08:07:16.933025+00:00,11.105000,-0.168340,
2025-10-24T08:07:16.938025+00:00,11.110000,-0.156180,
2025-10-24T08:07:16.943025+00:00,11.115000,-0.144780,
2025-10-24T08:07:16.948025+00:00,11.120000,-0.132620,
2025-10-24T08:07:16.953025+00:00,11.125000,-0.118940,
2025-10-24T08:07:16.958025+00:00,11.130000,-0.105260,
2025-10-24T08:07:16.963025+00:00,11.135000,-0.092720,
2025-10-24T08:07:16.968025+00:00,11.140000,-0.082840,
2025-10-24T08:07:16.973025+00:00,11.145000,-0.074100,
2025-10-24T08:07:16.978025+00:00,11.150000,-0.064600,
2025-10-24T08:07:16.983025+00:00,11.155000,-0.055480,
2025-10-24T08:07:16.988025+00:00,11.160000,-0.046360,
2025-10-24T08:07:16.993025+00:00,11.165000,-0.040280,
2025-10-24T08:07:16.998025+00:00,11.170000,-0.037240,
2025-10-24T08:07:17.003025+00:00,11.175000,-0.035340,
2025-10-24T08:07:17.008025+00:00,11.180000,-0.033820,
2025-10-24T08:07:17.013025+00:00,11.185000,-0.030780,
2025-10-24T08:07:17.018025+00:00,11.190000,-0.029640,
2025-10-24T08:07:17.023025+00:00,11.195000,-0.027360,
2025-10-24T08:07:17.028025+00:00,11.200000,-0.025840,
2025-10-24T08:07:17.033025+00:00,11.205000,-0.020900,
2025-10-24T08:07:17.038025+00:00,11.210000,-0.019380,
2025-10-24T08:07:17.043025+00:00,11.215000,-0.020900,
2025-10-24T08:07:17.048025+00:00,11.220000,-0.024700,
2025-10-24T08:07:17.053025+00:00,11.225000,-0.026980,
2025-10-24T08:07:17.058025+00:00,11.230000,-0.027740,
2025-10-24T08:07:17.063025+00:00,11.235000,-0.027740,
2025-10-24T08:07:17.068025+00:00,11.240000,-0.027740,
2025-10-24T08:07:17.073025+00:00,11.245000,-0.028120,
2025-10-24T08:07:17.078025+00:00,11.250000,-0.029260,
2025-10-24T08:07:17.083025+00:00,11.255000,-0.029260,
2025-10-24T08:07:17.088025+00:00,11.260000,-0.029260,
2025-10-24T08:07:17.093025+00:00,11.265000,-0.030400,
2025-10-24T08:07:17.098025+00:00,11.270000,-0.030780,
2025-10-24T08:07:17.103025+00:00,11.275000,-0.030780,
2025-10-24T08:07:17.108025+00:00,11.280000,-0.031540,
2025-10-24T08:07:17.113025+00:00,11.285000,-0.031920,
2025-10-24T08:07:17.118025+00:00,11.290000,-0.033440,
2025-10-24T08:07:17.123025+00:00,11.295000,-0.034580,
2025-10-24T08:07:17.128025+00:00,11.300000,-0.037240,
2025-10-24T08:07:17.133025+00:00,11.305000,-0.038380,
2025-10-24T08:07:17.138025+00:00,11.310000,-0.036860,
2025-10-24T08:07:17.143025+00:00,11.315000,-0.034580,
2025-10-24T08:07:17.148025+00:00,11.320000,-0.035340,
