timestamp_utc,t_rel_sec,ecg_mV,event
2025-11-12T17:07:36.370170+00:00,0.000000,0.000000,
2025-11-12T17:07:36.375170+00:00,0.005000,-0.000380,
2025-11-12T17:07:36.380170+00:00,0.010000,-0.000380,
2025-11-12T17:07:36.385170+00:00,0.015000,-0.001520,
2025-11-12T17:07:36.390170+00:00,0.020000,-0.010640,
2025-11-12T17:07:36.395170+00:00,0.025000,0.021660,
2025-11-12T17:07:36.400170+00:00,0.030000,0.014440,
2025-11-12T17:07:36.405170+00:00,0.035000,-0.171380,
2025-11-12T17:07:36.410170+00:00,0.040000,0.070680,
2025-11-12T17:07:36.415170+00:00,0.045000,0.617880,
2025-11-12T17:07:36.420170+00:00,0.050000,-0.196840,
2025-11-12T17:07:36.425170+00:00,0.055000,-1.539380,
2025-11-12T17:07:36.430170+00:00,0.060000,0.117420,
2025-11-12T17:07:36.435170+00:00,0.065000,5.177880,
2025-11-12T17:07:36.440170+00:00,0.070000,9.003720,
2025-11-12T17:07:36.445170+00:00,0.075000,7.336280,
2025-11-12T17:07:36.450170+00:00,0.080000,1.889740,
2025-11-12T17:07:36.455170+00:00,0.085000,-1.949400,
2025-11-12T17:07:36.460170+00:00,0.090000,-1.906080,
2025-11-12T17:07:36.465170+00:00,0.095000,-0.707940,
2025-11-12T17:07:36.470170+00:00,0.100000,-0.814340,
2025-11-12T17:07:36.475170+00:00,0.105000,-1.231580,
2025-11-12T17:07:36.480170+00:00,0.110000,-1.099340,
2025-11-12T17:07:36.485170+00:00,0.115000,-0.947340,
2025-11-12T17:07:36.490170+00:00,0.120000,-0.880460,
2025-11-12T17:07:36.495170+00:00,0.125000,-0.781660,
2025-11-12T17:07:36.500170+00:00,0.130000,-0.693500,
2025-11-12T17:07:36.505170+00:00,0.135000,-0.619400,
2025-11-12T17:07:36.510170+00:00,0.140000,-0.551000,
2025-11-12T17:07:36.515170+00:00,0.145000,-0.490200,
2025-11-12T17:07:36.520170+00:00,0.150000,-0.437380,
2025-11-12T17:07:36.525170+00:00,0.155000,-0.392540,
2025-11-12T17:07:36.530170+00:00,0.160000,-0.356060,
2025-11-12T17:07:36.535170+00:00,0.165000,-0.326040,
2025-11-12T17:07:36.540170+00:00,0.170000,-0.299060,
2025-11-12T17:07:36.545170+00:00,0.175000,-0.278540,
2025-11-12T17:07:36.550170+00:00,0.180000,-0.259920,
2025-11-12T17:07:36.555170+00:00,0.185000,-0.243200,
2025-11-12T17:07:36.560170+00:00,0.190000,-0.228760,
2025-11-12T17:07:36.565170+00:00,0.195000,-0.216980,
2025-11-12T17:07:36.570170+00:00,0.200000,-0.206720,
2025-11-12T17:07:36.575170+00:00,0.205000,-0.197600,
2025-11-12T17:07:36.580170+00:00,0.210000,-0.188860,
2025-11-12T17:07:36.585170+00:00,0.215000,-0.180500,
2025-11-12T17:07:36.590170+00:00,0.220000,-0.173280,
2025-11-12T17:07:36.595170+00:00,0.225000,-0.165300,
2025-11-12T17:07:36.600170+00:00,0.230000,-0.157320,
2025-11-12T17:07:36.605170+00:00,0.235000,-0.149720,
2025-11-12T17:07:36.610170+00:00,0.240000,-0.144020,
2025-11-12T17:07:36.615170+00:00,0.245000,-0.140220,
2025-11-12T17:07:36.620170+00:00,0.250000,-0.136420,
2025-11-12T17:07:36.625170+00:00,0.255000,-0.132620,
2025-11-12T17:07:36.630170+00:00,0.260000,-0.128820,
2025-11-12T17:07:36.635170+00:00,0.265000,-0.125020,
2025-11-12T17:07:36.640170+00:00,0.270000,-0.123120,
2025-11-12T17:07:36.645170+00:00,0.275000,-0.123120,
2025-11-12T17:07:36.650170+00:00,0.280000,-0.120080,
2025-11-12T17:07:36.655170+00:00,0.285000,-0.118180,
2025-11-12T17:07:36.660170+00:00,0.290000,-0.114760,
2025-11-12T17:07:36.665170+00:00,0.295000,-0.112860,
2025-11-12T17:07:36.670170+00:00,0.300000,-0.110580,
2025-11-12T17:07:36.675170+00:00,0.305000,-0.110200,
2025-11-12T17:07:36.680170+00:00,0.310000,-0.110200,
2025-11-12T17:07:36.685170+00:00,0.315000,-0.110200,
2025-11-12T17:07:36.690170+00:00,0.320000,-0.109820,
2025-11-12T17:07:36.695170+00:00,0.325000,-0.107920,
2025-11-12T17:07:36.700170+00:00,0.330000,-0.104500,
2025-11-12T17:07:36.705170+00:00,0.335000,-0.101460,
2025-11-12T17:07:36.710170+00:00,0.340000,-0.099180,
2025-11-12T17:07:36.715170+00:00,0.345000,-0.098040,
2025-11-12T17:07:36.720170+00:00,0.350000,-0.095380,
2025-11-12T17:07:36.725170+00:00,0.355000,-0.093100,
2025-11-12T17:07:36.730170+00:00,0.360000,-0.093480,
2025-11-12T17:07:36.735170+00:00,0.365000,-0.093480,
2025-11-12T17:07:36.740170+00:00,0.370000,-0.092720,
2025-11-12T17:07:36.745170+00:00,0.375000,-0.089680,
2025-11-12T17:07:36.750170+00:00,0.380000,-0.086640,
2025-11-12T17:07:36.755170+00:00,0.385000,-0.084740,
2025-11-12T17:07:36.760170+00:00,0.390000,-0.085500,
2025-11-12T17:07:36.765170+00:00,0.395000,-0.084360,
2025-11-12T17:07:36.770170+00:00,0.400000,-0.083220,
2025-11-12T17:07:36.775170+00:00,0.405000,-0.081700,
2025-11-12T17:07:36.780170+00:00,0.410000,-0.080180,
2025-11-12T17:07:36.785170+00:00,0.415000,-0.076380,
2025-11-12T17:07:36.790170+00:00,0.420000,-0.072960,
2025-11-12T17:07:36.795170+00:00,0.425000,-0.070300,
2025-11-12T17:07:36.800170+00:00,0.430000,-0.069920,
2025-11-12T17:07:36.805170+00:00,0.435000,-0.070680,
2025-11-12T17:07:36.810170+00:00,0.440000,-0.071060,
2025-11-12T17:07:36.815170+00:00,0.445000,-0.071440,
2025-11-12T17:07:36.820170+00:00,0.450000,-0.071060,
2025-11-12T17:07:36.825170+00:00,0.455000,-0.070300,
2025-11-12T17:07:36.830170+00:00,0.460000,-0.069540,
2025-11-12T17:07:36.835170+00:00,0.465000,-0.068400,
2025-11-12T17:07:36.840170+00:00,0.470000,-0.068400,
2025-11-12T17:07:36.845170+00:00,0.475000,-0.068400,
2025-11-12T17:07:36.850170+00:00,0.480000,-0.067640,
2025-11-12T17:07:36.855170+00:00,0.485000,-0.066500,
2025-11-12T17:07:36.860170+00:00,0.490000,-0.065740,
2025-11-12T17:07:36.865170+00:00,0.495000,-0.065740,
2025-11-12T17:07:36.870170+00:00,0.500000,-0.065740,
2025-11-12T17:07:36.875170+00:00,0.505000,-0.065360,
2025-11-12T17:07:36.880170+00:00,0.510000,-0.064600,
2025-11-12T17:07:36.885170+00:00,0.515000,-0.062700,
2025-11-12T17:07:36.890170+00:00,0.520000,-0.061180,
2025-11-12T17:07:36.895170+00:00,0.525000,-0.059660,
2025-11-12T17:07:36.900170+00:00,0.530000,-0.058520,
2025-11-12T17:07:36.905170+00:00,0.535000,-0.059280,
2025-11-12T17:07:36.910170+00:00,0.540000,-0.063460,
2025-11-12T17:07:36.915170+00:00,0.545000,-0.068780,
2025-11-12T17:07:36.920170+00:00,0.550000,-0.069160,
2025-11-12T17:07:36.925170+00:00,0.555000,-0.064600,
2025-11-12T17:07:36.930170+00:00,0.560000,-0.053960,
2025-11-12T17:07:36.935170+00:00,0.565000,-0.037620,
2025-11-12T17:07:36.940170+00:00,0.570000,-0.019000,
2025-11-12T17:07:36.945170+00:00,0.575000,-0.009500,
2025-11-12T17:07:36.950170+00:00,0.580000,-0.016340,
2025-11-12T17:07:36.955170+00:00,0.585000,-0.039140,
2025-11-12T17:07:36.960170+00:00,0.590000,-0.058900,
2025-11-12T17:07:36.965170+00:00,0.595000,-0.064600,
2025-11-12T17:07:36.970170+00:00,0.600000,-0.060040,
2025-11-12T17:07:36.975170+00:00,0.605000,-0.056240,
2025-11-12T17:07:36.980170+00:00,0.610000,-0.059660,
2025-11-12T17:07:36.985170+00:00,0.615000,-0.066500,
2025-11-12T17:07:36.990170+00:00,0.620000,-0.073340,
2025-11-12T17:07:36.995170+00:00,0.625000,-0.076760,
2025-11-12T17:07:37.000170+00:00,0.630000,-0.076760,
2025-11-12T17:07:37.005170+00:00,0.635000,-0.072580,
2025-11-12T17:07:37.010170+00:00,0.640000,-0.065360,
2025-11-12T17:07:37.015170+00:00,0.645000,-0.058520,
2025-11-12T17:07:37.020170+00:00,0.650000,-0.057380,
2025-11-12T17:07:37.025170+00:00,0.655000,-0.053960,
2025-11-12T17:07:37.030170+00:00,0.660000,-0.042940,
2025-11-12T17:07:37.035170+00:00,0.665000,-0.028500,
2025-11-12T17:07:37.040170+00:00,0.670000,-0.017860,
2025-11-12T17:07:37.045170+00:00,0.675000,0.011400,
2025-11-12T17:07:37.050170+00:00,0.680000,0.111720,
2025-11-12T17:07:37.055170+00:00,0.685000,0.340100,
2025-11-12T17:07:37.060170+00:00,0.690000,0.694260,
2025-11-12T17:07:37.065170+00:00,0.695000,1.009280,
2025-11-12T17:07:37.070170+00:00,0.700000,0.970900,
2025-11-12T17:07:37.075170+00:00,0.705000,0.425220,
2025-11-12T17:07:37.080170+00:00,0.710000,-0.381140,
2025-11-12T17:07:37.085170+00:00,0.715000,-0.955700,
2025-11-12T17:07:37.090170+00:00,0.720000,-1.018400,
2025-11-12T17:07:37.095170+00:00,0.725000,-0.727320,
2025-11-12T17:07:37.100170+00:00,0.730000,-0.416100,
2025-11-12T17:07:37.105170+00:00,0.735000,-0.249660,
2025-11-12T17:07:37.110170+00:00,0.740000,-0.179740,
2025-11-12T17:07:37.115170+00:00,0.745000,-0.135280,
2025-11-12T17:07:37.120170+00:00,0.750000,-0.107540,
2025-11-12T17:07:37.125170+00:00,0.755000,-0.091960,
2025-11-12T17:07:37.130170+00:00,0.760000,-0.078280,
2025-11-12T17:07:37.135170+00:00,0.765000,-0.066500,
2025-11-12T17:07:37.140170+00:00,0.770000,-0.057000,
2025-11-12T17:07:37.145170+00:00,0.775000,-0.050160,
2025-11-12T17:07:37.150170+00:00,0.780000,-0.042560,
2025-11-12T17:07:37.155170+00:00,0.785000,-0.038000,
2025-11-12T17:07:37.160170+00:00,0.790000,-0.034580,
2025-11-12T17:07:37.165170+00:00,0.795000,-0.031540,
2025-11-12T17:07:37.170170+00:00,0.800000,-0.029640,
2025-11-12T17:07:37.175170+00:00,0.805000,-0.026980,
2025-11-12T17:07:37.180170+00:00,0.810000,-0.025840,
2025-11-12T17:07:37.185170+00:00,0.815000,-0.023180,
2025-11-12T17:07:37.190170+00:00,0.820000,-0.021280,
2025-11-12T17:07:37.195170+00:00,0.825000,-0.017100,
2025-11-12T17:07:37.200170+00:00,0.830000,-0.012540,
2025-11-12T17:07:37.205170+00:00,0.835000,-0.009880,
2025-11-12T17:07:37.210170+00:00,0.840000,-0.008740,
2025-11-12T17:07:37.215170+00:00,0.845000,-0.006080,
2025-11-12T17:07:37.220170+00:00,0.850000,-0.003800,
2025-11-12T17:07:37.225170+00:00,0.855000,0.000380,
2025-11-12T17:07:37.230170+00:00,0.860000,0.004940,
2025-11-12T17:07:37.235170+00:00,0.865000,0.009120,
2025-11-12T17:07:37.240170+00:00,0.870000,0.013300,
2025-11-12T17:07:37.245170+00:00,0.875000,0.019760,
2025-11-12T17:07:37.250170+00:00,0.880000,0.028120,
2025-11-12T17:07:37.255170+00:00,0.885000,0.037620,
2025-11-12T17:07:37.260170+00:00,0.890000,0.048640,
2025-11-12T17:07:37.265170+00:00,0.895000,0.057760,
2025-11-12T17:07:37.270170+00:00,0.900000,0.066120,
2025-11-12T17:07:37.275170+00:00,0.905000,0.072580,
2025-11-12T17:07:37.280170+00:00,0.910000,0.077140,
2025-11-12T17:07:37.285170+00:00,0.915000,0.080180,
2025-11-12T17:07:37.290170+00:00,0.920000,0.079040,
2025-11-12T17:07:37.295170+00:00,0.925000,0.074100,
2025-11-12T17:07:37.300170+00:00,0.930000,0.067260,
2025-11-12T17:07:37.305170+00:00,0.935000,0.057000,
2025-11-12T17:07:37.310170+00:00,0.940000,0.043700,
2025-11-12T17:07:37.315170+00:00,0.945000,0.022800,
2025-11-12T17:07:37.320170+00:00,0.950000,-0.009880,
2025-11-12T17:07:37.325170+00:00,0.955000,-0.056620,
2025-11-12T17:07:37.330170+00:00,0.960000,-0.114760,
2025-11-12T17:07:37.335170+00:00,0.965000,-0.176700,
2025-11-12T17:07:37.340170+00:00,0.970000,-0.230660,
2025-11-12T17:07:37.345170+00:00,0.975000,-0.269420,
2025-11-12T17:07:37.350170+00:00,0.980000,-0.291840,
2025-11-12T17:07:37.355170+00:00,0.985000,-0.297920,
2025-11-12T17:07:37.360170+00:00,0.990000,-0.289180,
2025-11-12T17:07:37.365170+00:00,0.995000,-0.270180,
2025-11-12T17:07:37.370170+00:00,1.000000,-0.242440,
2025-11-12T17:07:37.375170+00:00,1.005000,-0.213560,
2025-11-12T17:07:37.380170+00:00,1.010000,-0.186960,
2025-11-12T17:07:37.385170+00:00,1.015000,-0.160360,
2025-11-12T17:07:37.390170+00:00,1.020000,-0.134900,
2025-11-12T17:07:37.395170+00:00,1.025000,-0.113620,
2025-11-12T17:07:37.400170+00:00,1.030000,-0.097660,
2025-11-12T17:07:37.405170+00:00,1.035000,-0.083980,
2025-11-12T17:07:37.410170+00:00,1.040000,-0.069920,
2025-11-12T17:07:37.415170+00:00,1.045000,-0.060420,
2025-11-12T17:07:37.420170+00:00,1.050000,-0.053960,
2025-11-12T17:07:37.425170+00:00,1.055000,-0.050160,
2025-11-12T17:07:37.430170+00:00,1.060000,-0.045600,
2025-11-12T17:07:37.435170+00:00,1.065000,-0.042180,
2025-11-12T17:07:37.440170+00:00,1.070000,-0.038760,
2025-11-12T17:07:37.445170+00:00,1.075000,-0.036860,
2025-11-12T17:07:37.450170+00:00,1.080000,-0.035720,
2025-11-12T17:07:37.455170+00:00,1.085000,-0.032300,
2025-11-12T17:07:37.460170+00:00,1.090000,-0.028500,
2025-11-12T17:07:37.465170+00:00,1.095000,-0.025080,
2025-11-12T17:07:37.470170+00:00,1.100000,-0.023180,
2025-11-12T17:07:37.475170+00:00,1.105000,-0.021660,
2025-11-12T17:07:37.480170+00:00,1.110000,-0.020140,
2025-11-12T17:07:37.485170+00:00,1.115000,-0.020140,
2025-11-12T17:07:37.490170+00:00,1.120000,-0.019380,
2025-11-12T17:07:37.495170+00:00,1.125000,-0.020140,
2025-11-12T17:07:37.500170+00:00,1.130000,-0.022800,
2025-11-12T17:07:37.505170+00:00,1.135000,-0.025460,
2025-11-12T17:07:37.510170+00:00,1.140000,-0.026980,
2025-11-12T17:07:37.515170+00:00,1.145000,-0.027740,
2025-11-12T17:07:37.520170+00:00,1.150000,-0.028500,
2025-11-12T17:07:37.525170+00:00,1.155000,-0.030780,
2025-11-12T17:07:37.530170+00:00,1.160000,-0.032680,
2025-11-12T17:07:37.535170+00:00,1.165000,-0.032680,
2025-11-12T17:07:37.540170+00:00,1.170000,-0.032300,
2025-11-12T17:07:37.545170+00:00,1.175000,-0.031540,
2025-11-12T17:07:37.550170+00:00,1.180000,-0.032300,
2025-11-12T17:07:37.555170+00:00,1.185000,-0.031920,
2025-11-12T17:07:37.560170+00:00,1.190000,-0.030780,
2025-11-12T17:07:37.565170+00:00,1.195000,-0.031540,
2025-11-12T17:07:37.570170+00:00,1.200000,-0.034960,
2025-11-12T17:07:37.575170+00:00,1.205000,-0.037240,
2025-11-12T17:07:37.580170+00:00,1.210000,-0.038760,
2025-11-12T17:07:37.585170+00:00,1.215000,-0.038000,
2025-11-12T17:07:37.590170+00:00,1.220000,-0.035340,
2025-11-12T17:07:37.595170+00:00,1.225000,-0.033060,
2025-11-12T17:07:37.600170+00:00,1.230000,-0.031540,
2025-11-12T17:07:37.605170+00:00,1.235000,-0.031920,
2025-11-12T17:07:37.610170+00:00,1.240000,-0.031160,
2025-11-12T17:07:37.615170+00:00,1.245000,-0.031160,
2025-11-12T17:07:37.620170+00:00,1.250000,-0.030020,
2025-11-12T17:07:37.625170+00:00,1.255000,-0.030780,
2025-11-12T17:07:37.630170+00:00,1.260000,-0.033440,
2025-11-12T17:07:37.635170+00:00,1.265000,-0.035720,
2025-11-12T17:07:37.640170+00:00,1.270000,-0.034200,
2025-11-12T17:07:37.645170+00:00,1.275000,-0.030400,
2025-11-12T17:07:37.650170+00:00,1.280000,-0.029640,
2025-11-12T17:07:37.655170+00:00,1.285000,-0.028880,
2025-11-12T17:07:37.660170+00:00,1.290000,-0.028880,
2025-11-12T17:07:37.665170+00:00,1.295000,-0.027360,
2025-11-12T17:07:37.670170+00:00,1.300000,-0.027360,
2025-11-12T17:07:37.675170+00:00,1.305000,-0.026220,
2025-11-12T17:07:37.680170+00:00,1.310000,-0.026600,
2025-11-12T17:07:37.685170+00:00,1.315000,-0.028120,
2025-11-12T17:07:37.690170+00:00,1.320000,-0.028120,
2025-11-12T17:07:37.695170+00:00,1.325000,-0.028500,
2025-11-12T17:07:37.700170+00:00,1.330000,-0.027740,
2025-11-12T17:07:37.705170+00:00,1.335000,-0.026220,
2025-11-12T17:07:37.710170+00:00,1.340000,-0.025460,
2025-11-12T17:07:37.715170+00:00,1.345000,-0.026600,
2025-11-12T17:07:37.720170+00:00,1.350000,-0.026980,
2025-11-12T17:07:37.725170+00:00,1.355000,-0.026220,
2025-11-12T17:07:37.730170+00:00,1.360000,-0.025460,
2025-11-12T17:07:37.735170+00:00,1.365000,-0.025080,
2025-11-12T17:07:37.740170+00:00,1.370000,-0.024700,
2025-11-12T17:07:37.745170+00:00,1.375000,-0.026600,
2025-11-12T17:07:37.750170+00:00,1.380000,-0.026980,
2025-11-12T17:07:37.755170+00:00,1.385000,-0.025460,
2025-11-12T17:07:37.760170+00:00,1.390000,-0.024320,
2025-11-12T17:07:37.765170+00:00,1.395000,-0.023560,
2025-11-12T17:07:37.770170+00:00,1.400000,-0.025080,
2025-11-12T17:07:37.775170+00:00,1.405000,-0.026600,
2025-11-12T17:07:37.780170+00:00,1.410000,-0.026980,
2025-11-12T17:07:37.785170+00:00,1.415000,-0.027360,
2025-11-12T17:07:37.790170+00:00,1.420000,-0.027740,
2025-11-12T17:07:37.795170+00:00,1.425000,-0.027360,
2025-11-12T17:07:37.800170+00:00,1.430000,-0.027360,
2025-11-12T17:07:37.805170+00:00,1.435000,-0.028500,
2025-11-12T17:07:37.810170+00:00,1.440000,-0.031160,
2025-11-12T17:07:37.815170+00:00,1.445000,-0.033440,
2025-11-12T17:07:37.820170+00:00,1.450000,-0.033440,
2025-11-12T17:07:37.825170+00:00,1.455000,-0.029640,
2025-11-12T17:07:37.830170+00:00,1.460000,-0.021660,
2025-11-12T17:07:37.835170+00:00,1.465000,-0.007220,
2025-11-12T17:07:37.840170+00:00,1.470000,0.008740,
2025-11-12T17:07:37.845170+00:00,1.475000,0.015200,
2025-11-12T17:07:37.850170+00:00,1.480000,0.004180,
2025-11-12T17:07:37.855170+00:00,1.485000,-0.015960,
2025-11-12T17:07:37.860170+00:00,1.490000,-0.031920,
2025-11-12T17:07:37.865170+00:00,1.495000,-0.035720,
2025-11-12T17:07:37.870170+00:00,1.500000,-0.034200,
2025-11-12T17:07:37.875170+00:00,1.505000,-0.031920,
2025-11-12T17:07:37.880170+00:00,1.510000,-0.038000,
2025-11-12T17:07:37.885170+00:00,1.515000,-0.044840,
2025-11-12T17:07:37.890170+00:00,1.520000,-0.051680,
2025-11-12T17:07:37.895170+00:00,1.525000,-0.053200,
2025-11-12T17:07:37.900170+00:00,1.530000,-0.048260,
2025-11-12T17:07:37.905170+00:00,1.535000,-0.042560,
2025-11-12T17:07:37.910170+00:00,1.540000,-0.038000,
2025-11-12T17:07:37.915170+00:00,1.545000,-0.036480,
2025-11-12T17:07:37.920170+00:00,1.550000,-0.037240,
2025-11-12T17:07:37.925170+00:00,1.555000,-0.033820,
2025-11-12T17:07:37.930170+00:00,1.560000,-0.020520,
2025-11-12T17:07:37.935170+00:00,1.565000,-0.006460,
2025-11-12T17:07:37.940170+00:00,1.570000,0.006840,
2025-11-12T17:07:37.945170+00:00,1.575000,0.047880,
2025-11-12T17:07:37.950170+00:00,1.580000,0.173660,
2025-11-12T17:07:37.955170+00:00,1.585000,0.435860,
2025-11-12T17:07:37.960170+00:00,1.590000,0.806740,
2025-11-12T17:07:37.965170+00:00,1.595000,1.068180,
2025-11-12T17:07:37.970170+00:00,1.600000,0.913520,
2025-11-12T17:07:37.975170+00:00,1.605000,0.265620,
2025-11-12T17:07:37.980170+00:00,1.610000,-0.533900,
2025-11-12T17:07:37.985170+00:00,1.615000,-1.004340,
2025-11-12T17:07:37.990170+00:00,1.620000,-0.962160,
2025-11-12T17:07:37.995170+00:00,1.625000,-0.639540,
2025-11-12T17:07:38.000170+00:00,1.630000,-0.354540,
2025-11-12T17:07:38.005170+00:00,1.635000,-0.216600,
2025-11-12T17:07:38.010170+00:00,1.640000,-0.157320,
2025-11-12T17:07:38.015170+00:00,1.645000,-0.117420,
2025-11-12T17:07:38.020170+00:00,1.650000,-0.091960,
2025-11-12T17:07:38.025170+00:00,1.655000,-0.076760,
2025-11-12T17:07:38.030170+00:00,1.660000,-0.062320,
2025-11-12T17:07:38.035170+00:00,1.665000,-0.050920,
2025-11-12T17:07:38.040170+00:00,1.670000,-0.041800,
2025-11-12T17:07:38.045170+00:00,1.675000,-0.036480,
2025-11-12T17:07:38.050170+00:00,1.680000,-0.032300,
2025-11-12T17:07:38.055170+00:00,1.685000,-0.029260,
2025-11-12T17:07:38.060170+00:00,1.690000,-0.022040,
2025-11-12T17:07:38.065170+00:00,1.695000,-0.016340,
2025-11-12T17:07:38.070170+00:00,1.700000,-0.013300,
2025-11-12T17:07:38.075170+00:00,1.705000,-0.012160,
2025-11-12T17:07:38.080170+00:00,1.710000,-0.010640,
2025-11-12T17:07:38.085170+00:00,1.715000,-0.010260,
2025-11-12T17:07:38.090170+00:00,1.720000,-0.008740,
2025-11-12T17:07:38.095170+00:00,1.725000,-0.006460,
2025-11-12T17:07:38.100170+00:00,1.730000,-0.003420,
2025-11-12T17:07:38.105170+00:00,1.735000,0.000380,
2025-11-12T17:07:38.110170+00:00,1.740000,0.004560,
2025-11-12T17:07:38.115170+00:00,1.745000,0.007980,
2025-11-12T17:07:38.120170+00:00,1.750000,0.009880,
2025-11-12T17:07:38.125170+00:00,1.755000,0.010260,
2025-11-12T17:07:38.130170+00:00,1.760000,0.013680,
2025-11-12T17:07:38.135170+00:00,1.765000,0.019000,
2025-11-12T17:07:38.140170+00:00,1.770000,0.025460,
2025-11-12T17:07:38.145170+00:00,1.775000,0.031160,
2025-11-12T17:07:38.150170+00:00,1.780000,0.036100,
2025-11-12T17:07:38.155170+00:00,1.785000,0.044080,
2025-11-12T17:07:38.160170+00:00,1.790000,0.055480,
2025-11-12T17:07:38.165170+00:00,1.795000,0.066120,
2025-11-12T17:07:38.170170+00:00,1.800000,0.076000,
2025-11-12T17:07:38.175170+00:00,1.805000,0.083600,
2025-11-12T17:07:38.180170+00:00,1.810000,0.088160,
2025-11-12T17:07:38.185170+00:00,1.815000,0.090820,
2025-11-12T17:07:38.190170+00:00,1.820000,0.088160,
2025-11-12T17:07:38.195170+00:00,1.825000,0.083600,
2025-11-12T17:07:38.200170+00:00,1.830000,0.078280,
2025-11-12T17:07:38.205170+00:00,1.835000,0.071820,
2025-11-12T17:07:38.210170+00:00,1.840000,0.058520,
2025-11-12T17:07:38.215170+00:00,1.845000,0.034580,
2025-11-12T17:07:38.220170+00:00,1.850000,-0.001520,
2025-11-12T17:07:38.225170+00:00,1.855000,-0.050540,
2025-11-12T17:07:38.230170+00:00,1.860000,-0.109820,
2025-11-12T17:07:38.235170+00:00,1.865000,-0.172140,
2025-11-12T17:07:38.240170+00:00,1.870000,-0.227620,
2025-11-12T17:07:38.245170+00:00,1.875000,-0.267900,
2025-11-12T17:07:38.250170+00:00,1.880000,-0.292600,
2025-11-12T17:07:38.255170+00:00,1.885000,-0.297920,
2025-11-12T17:07:38.260170+00:00,1.890000,-0.289560,
2025-11-12T17:07:38.265170+00:00,1.895000,-0.269040,
2025-11-12T17:07:38.270170+00:00,1.900000,-0.242440,
2025-11-12T17:07:38.275170+00:00,1.905000,-0.213940,
2025-11-12T17:07:38.280170+00:00,1.910000,-0.186200,
2025-11-12T17:07:38.285170+00:00,1.915000,-0.159220,
2025-11-12T17:07:38.290170+00:00,1.920000,-0.134520,
2025-11-12T17:07:38.295170+00:00,1.925000,-0.111340,
2025-11-12T17:07:38.300170+00:00,1.930000,-0.091960,
2025-11-12T17:07:38.305170+00:00,1.935000,-0.077520,
2025-11-12T17:07:38.310170+00:00,1.940000,-0.066500,
2025-11-12T17:07:38.315170+00:00,1.945000,-0.055480,
2025-11-12T17:07:38.320170+00:00,1.950000,-0.048640,
2025-11-12T17:07:38.325170+00:00,1.955000,-0.044840,
2025-11-12T17:07:38.330170+00:00,1.960000,-0.042560,
2025-11-12T17:07:38.335170+00:00,1.965000,-0.039520,
2025-11-12T17:07:38.340170+00:00,1.970000,-0.036860,
2025-11-12T17:07:38.345170+00:00,1.975000,-0.034580,
2025-11-12T17:07:38.350170+00:00,1.980000,-0.034200,
2025-11-12T17:07:38.355170+00:00,1.985000,-0.033060,
2025-11-12T17:07:38.360170+00:00,1.990000,-0.029260,
2025-11-12T17:07:38.365170+00:00,1.995000,-0.023940,
2025-11-12T17:07:38.370170+00:00,2.000000,-0.020140,
2025-11-12T17:07:38.375170+00:00,2.005000,-0.017860,
2025-11-12T17:07:38.380170+00:00,2.010000,-0.018240,
2025-11-12T17:07:38.385170+00:00,2.015000,-0.020140,
2025-11-12T17:07:38.390170+00:00,2.020000,-0.021280,
2025-11-12T17:07:38.395170+00:00,2.025000,-0.020520,
2025-11-12T17:07:38.400170+00:00,2.030000,-0.019000,
2025-11-12T17:07:38.405170+00:00,2.035000,-0.019000,
2025-11-12T17:07:38.410170+00:00,2.040000,-0.021280,
2025-11-12T17:07:38.415170+00:00,2.045000,-0.023180,
2025-11-12T17:07:38.420170+00:00,2.050000,-0.025080,
2025-11-12T17:07:38.425170+00:00,2.055000,-0.025460,
2025-11-12T17:07:38.430170+00:00,2.060000,-0.026220,
2025-11-12T17:07:38.435170+00:00,2.065000,-0.027740,
2025-11-12T17:07:38.440170+00:00,2.070000,-0.031920,
2025-11-12T17:07:38.445170+00:00,2.075000,-0.034200,
2025-11-12T17:07:38.450170+00:00,2.080000,-0.034960,
2025-11-12T17:07:38.455170+00:00,2.085000,-0.034960,
2025-11-12T17:07:38.460170+00:00,2.090000,-0.035340,
2025-11-12T17:07:38.465170+00:00,2.095000,-0.034580,
2025-11-12T17:07:38.470170+00:00,2.100000,-0.034200,
2025-11-12T17:07:38.475170+00:00,2.105000,-0.034200,
2025-11-12T17:07:38.480170+00:00,2.110000,-0.034580,
2025-11-12T17:07:38.485170+00:00,2.115000,-0.034200,
2025-11-12T17:07:38.490170+00:00,2.120000,-0.032300,
2025-11-12T17:07:38.495170+00:00,2.125000,-0.032300,
2025-11-12T17:07:38.500170+00:00,2.130000,-0.031920,
2025-11-12T17:07:38.505170+00:00,2.135000,-0.033060,
2025-11-12T17:07:38.510170+00:00,2.140000,-0.033440,
2025-11-12T17:07:38.515170+00:00,2.145000,-0.032300,
2025-11-12T17:07:38.520170+00:00,2.150000,-0.031920,
2025-11-12T17:07:38.525170+00:00,2.155000,-0.031920,
2025-11-12T17:07:38.530170+00:00,2.160000,-0.031920,
2025-11-12T17:07:38.535170+00:00,2.165000,-0.033060,
2025-11-12T17:07:38.540170+00:00,2.170000,-0.031920,
2025-11-12T17:07:38.545170+00:00,2.175000,-0.029640,
2025-11-12T17:07:38.550170+00:00,2.180000,-0.028120,
2025-11-12T17:07:38.555170+00:00,2.185000,-0.026980,
2025-11-12T17:07:38.560170+00:00,2.190000,-0.026600,
2025-11-12T17:07:38.565170+00:00,2.195000,-0.025460,
2025-11-12T17:07:38.570170+00:00,2.200000,-0.026220,
2025-11-12T17:07:38.575170+00:00,2.205000,-0.028880,
2025-11-12T17:07:38.580170+00:00,2.210000,-0.031540,
2025-11-12T17:07:38.585170+00:00,2.215000,-0.032300,
2025-11-12T17:07:38.590170+00:00,2.220000,-0.030400,
2025-11-12T17:07:38.595170+00:00,2.225000,-0.028500,
2025-11-12T17:07:38.600170+00:00,2.230000,-0.027360,
2025-11-12T17:07:38.605170+00:00,2.235000,-0.026600,
2025-11-12T17:07:38.610170+00:00,2.240000,-0.028500,
2025-11-12T17:07:38.615170+00:00,2.245000,-0.031540,
2025-11-12T17:07:38.620170+00:00,2.250000,-0.034960,
2025-11-12T17:07:38.625170+00:00,2.255000,-0.035340,
2025-11-12T17:07:38.630170+00:00,2.260000,-0.034200,
2025-11-12T17:07:38.635170+00:00,2.265000,-0.031920,
2025-11-12T17:07:38.640170+00:00,2.270000,-0.029640,
2025-11-12T17:07:38.645170+00:00,2.275000,-0.028880,
2025-11-12T17:07:38.650170+00:00,2.280000,-0.029260,
2025-11-12T17:07:38.655170+00:00,2.285000,-0.029260,
2025-11-12T17:07:38.660170+00:00,2.290000,-0.029640,
2025-11-12T17:07:38.665170+00:00,2.295000,-0.029640,
2025-11-12T17:07:38.670170+00:00,2.300000,-0.029260,
2025-11-12T17:07:38.675170+00:00,2.305000,-0.028120,
2025-11-12T17:07:38.680170+00:00,2.310000,-0.026980,
2025-11-12T17:07:38.685170+00:00,2.315000,-0.025840,
2025-11-12T17:07:38.690170+00:00,2.320000,-0.024320,
2025-11-12T17:07:38.695170+00:00,2.325000,-0.024320,
2025-11-12T17:07:38.700170+00:00,2.330000,-0.025840,
2025-11-12T17:07:38.705170+00:00,2.335000,-0.028500,
2025-11-12T17:07:38.710170+00:00,2.340000,-0.030020,
2025-11-12T17:07:38.715170+00:00,2.345000,-0.030400,
2025-11-12T17:07:38.720170+00:00,2.350000,-0.033440,
2025-11-12T17:07:38.725170+00:00,2.355000,-0.036860,
2025-11-12T17:07:38.730170+00:00,2.360000,-0.039140,
2025-11-12T17:07:38.735170+00:00,2.365000,-0.036100,
2025-11-12T17:07:38.740170+00:00,2.370000,-0.026980,
2025-11-12T17:07:38.745170+00:00,2.375000,-0.010640,
2025-11-12T17:07:38.750170+00:00,2.380000,0.006840,
2025-11-12T17:07:38.755170+00:00,2.385000,0.015960,
2025-11-12T17:07:38.760170+00:00,2.390000,0.008360,
2025-11-12T17:07:38.765170+00:00,2.395000,-0.011400,
2025-11-12T17:07:38.770170+00:00,2.400000,-0.028880,
2025-11-12T17:07:38.775170+00:00,2.405000,-0.036480,
2025-11-12T17:07:38.780170+00:00,2.410000,-0.035340,
2025-11-12T17:07:38.785170+00:00,2.415000,-0.033440,
2025-11-12T17:07:38.790170+00:00,2.420000,-0.036860,
2025-11-12T17:07:38.795170+00:00,2.425000,-0.043320,
2025-11-12T17:07:38.800170+00:00,2.430000,-0.051300,
2025-11-12T17:07:38.805170+00:00,2.435000,-0.054340,
2025-11-12T17:07:38.810170+00:00,2.440000,-0.052820,
2025-11-12T17:07:38.815170+00:00,2.445000,-0.046740,
2025-11-12T17:07:38.820170+00:00,2.450000,-0.038760,
2025-11-12T17:07:38.825170+00:00,2.455000,-0.035720,
2025-11-12T17:07:38.830170+00:00,2.460000,-0.036860,
2025-11-12T17:07:38.835170+00:00,2.465000,-0.037620,
2025-11-12T17:07:38.840170+00:00,2.470000,-0.028500,
2025-11-12T17:07:38.845170+00:00,2.475000,-0.014820,
2025-11-12T17:07:38.850170+00:00,2.480000,-0.002660,
2025-11-12T17:07:38.855170+00:00,2.485000,0.031540,
2025-11-12T17:07:38.860170+00:00,2.490000,0.139460,
2025-11-12T17:07:38.865170+00:00,2.495000,0.377720,
2025-11-12T17:07:38.870170+00:00,2.500000,0.740240,
2025-11-12T17:07:38.875170+00:00,2.505000,1.046520,
2025-11-12T17:07:38.880170+00:00,2.510000,0.984960,
2025-11-12T17:07:38.885170+00:00,2.515000,0.412680,
2025-11-12T17:07:38.890170+00:00,2.520000,-0.400520,
2025-11-12T17:07:38.895170+00:00,2.525000,-0.959500,
2025-11-12T17:07:38.900170+00:00,2.530000,-1.003960,
2025-11-12T17:07:38.905170+00:00,2.535000,-0.705280,
2025-11-12T17:07:38.910170+00:00,2.540000,-0.398620,
2025-11-12T17:07:38.915170+00:00,2.545000,-0.235980,
2025-11-12T17:07:38.920170+00:00,2.550000,-0.165680,
2025-11-12T17:07:38.925170+00:00,2.555000,-0.120840,
2025-11-12T17:07:38.930170+00:00,2.560000,-0.093100,
2025-11-12T17:07:38.935170+00:00,2.565000,-0.079420,
2025-11-12T17:07:38.940170+00:00,2.570000,-0.067640,
2025-11-12T17:07:38.945170+00:00,2.575000,-0.054720,
2025-11-12T17:07:38.950170+00:00,2.580000,-0.045220,
2025-11-12T17:07:38.955170+00:00,2.585000,-0.037240,
2025-11-12T17:07:38.960170+00:00,2.590000,-0.030020,
2025-11-12T17:07:38.965170+00:00,2.595000,-0.027360,
2025-11-12T17:07:38.970170+00:00,2.600000,-0.025080,
2025-11-12T17:07:38.975170+00:00,2.605000,-0.021280,
2025-11-12T17:07:38.980170+00:00,2.610000,-0.018240,
2025-11-12T17:07:38.985170+00:00,2.615000,-0.016340,
2025-11-12T17:07:38.990170+00:00,2.620000,-0.015200,
2025-11-12T17:07:38.995170+00:00,2.625000,-0.012540,
2025-11-12T17:07:39.000170+00:00,2.630000,-0.008740,
2025-11-12T17:07:39.005170+00:00,2.635000,-0.005700,
2025-11-12T17:07:39.010170+00:00,2.640000,-0.003800,
2025-11-12T17:07:39.015170+00:00,2.645000,-0.002280,
2025-11-12T17:07:39.020170+00:00,2.650000,-0.000380,
2025-11-12T17:07:39.025170+00:00,2.655000,0.003040,
2025-11-12T17:07:39.030170+00:00,2.660000,0.005320,
2025-11-12T17:07:39.035170+00:00,2.665000,0.008360,
2025-11-12T17:07:39.040170+00:00,2.670000,0.011400,
2025-11-12T17:07:39.045170+00:00,2.675000,0.015960,
2025-11-12T17:07:39.050170+00:00,2.680000,0.021280,
2025-11-12T17:07:39.055170+00:00,2.685000,0.027360,
2025-11-12T17:07:39.060170+00:00,2.690000,0.035340,
2025-11-12T17:07:39.065170+00:00,2.695000,0.045600,
2025-11-12T17:07:39.070170+00:00,2.700000,0.055480,
2025-11-12T17:07:39.075170+00:00,2.705000,0.064980,
2025-11-12T17:07:39.080170+00:00,2.710000,0.070680,
2025-11-12T17:07:39.085170+00:00,2.715000,0.076380,
2025-11-12T17:07:39.090170+00:00,2.720000,0.082080,
2025-11-12T17:07:39.095170+00:00,2.725000,0.089680,
2025-11-12T17:07:39.100170+00:00,2.730000,0.095380,
2025-11-12T17:07:39.105170+00:00,2.735000,0.093480,
2025-11-12T17:07:39.110170+00:00,2.740000,0.086260,
2025-11-12T17:07:39.115170+00:00,2.745000,0.076380,
2025-11-12T17:07:39.120170+00:00,2.750000,0.064600,
2025-11-12T17:07:39.125170+00:00,2.755000,0.046360,
2025-11-12T17:07:39.130170+00:00,2.760000,0.017480,
2025-11-12T17:07:39.135170+00:00,2.765000,-0.026600,
2025-11-12T17:07:39.140170+00:00,2.770000,-0.083600,
2025-11-12T17:07:39.145170+00:00,2.775000,-0.146680,
2025-11-12T17:07:39.150170+00:00,2.780000,-0.207860,
2025-11-12T17:07:39.155170+00:00,2.785000,-0.255360,
2025-11-12T17:07:39.160170+00:00,2.790000,-0.285760,
2025-11-12T17:07:39.165170+00:00,2.795000,-0.300200,
2025-11-12T17:07:39.170170+00:00,2.800000,-0.298300,
2025-11-12T17:07:39.175170+00:00,2.805000,-0.283860,
2025-11-12T17:07:39.180170+00:00,2.810000,-0.261820,
2025-11-12T17:07:39.185170+00:00,2.815000,-0.234460,
2025-11-12T17:07:39.190170+00:00,2.820000,-0.204820,
2025-11-12T17:07:39.195170+00:00,2.825000,-0.175940,
2025-11-12T17:07:39.200170+00:00,2.830000,-0.148580,
2025-11-12T17:07:39.205170+00:00,2.835000,-0.124260,
2025-11-12T17:07:39.210170+00:00,2.840000,-0.102600,
2025-11-12T17:07:39.215170+00:00,2.845000,-0.085880,
2025-11-12T17:07:39.220170+00:00,2.850000,-0.072960,
2025-11-12T17:07:39.225170+00:00,2.855000,-0.061940,
2025-11-12T17:07:39.230170+00:00,2.860000,-0.052440,
2025-11-12T17:07:39.235170+00:00,2.865000,-0.046740,
2025-11-12T17:07:39.240170+00:00,2.870000,-0.043700,
2025-11-12T17:07:39.245170+00:00,2.875000,-0.041040,
2025-11-12T17:07:39.250170+00:00,2.880000,-0.038760,
2025-11-12T17:07:39.255170+00:00,2.885000,-0.035340,
2025-11-12T17:07:39.260170+00:00,2.890000,-0.032680,
2025-11-12T17:07:39.265170+00:00,2.895000,-0.029640,
2025-11-12T17:07:39.270170+00:00,2.900000,-0.026600,
2025-11-12T17:07:39.275170+00:00,2.905000,-0.024320,
2025-11-12T17:07:39.280170+00:00,2.910000,-0.022040,
2025-11-12T17:07:39.285170+00:00,2.915000,-0.023560,
2025-11-12T17:07:39.290170+00:00,2.920000,-0.023560,
2025-11-12T17:07:39.295170+00:00,2.925000,-0.021660,
2025-11-12T17:07:39.300170+00:00,2.930000,-0.020520,
2025-11-12T17:07:39.305170+00:00,2.935000,-0.020900,
2025-11-12T17:07:39.310170+00:00,2.940000,-0.022040,
2025-11-12T17:07:39.315170+00:00,2.945000,-0.022800,
2025-11-12T17:07:39.320170+00:00,2.950000,-0.022420,
2025-11-12T17:07:39.325170+00:00,2.955000,-0.022040,
2025-11-12T17:07:39.330170+00:00,2.960000,-0.022420,
2025-11-12T17:07:39.335170+00:00,2.965000,-0.024320,
2025-11-12T17:07:39.340170+00:00,2.970000,-0.028120,
2025-11-12T17:07:39.345170+00:00,2.975000,-0.029260,
2025-11-12T17:07:39.350170+00:00,2.980000,-0.028500,
2025-11-12T17:07:39.355170+00:00,2.985000,-0.026600,
2025-11-12T17:07:39.360170+00:00,2.990000,-0.028500,
2025-11-12T17:07:39.365170+00:00,2.995000,-0.031540,
2025-11-12T17:07:39.370170+00:00,3.000000,-0.033820,
2025-11-12T17:07:39.375170+00:00,3.005000,-0.032680,
2025-11-12T17:07:39.380170+00:00,3.010000,-0.032680,
2025-11-12T17:07:39.385170+00:00,3.015000,-0.031540,
2025-11-12T17:07:39.390170+00:00,3.020000,-0.033060,
2025-11-12T17:07:39.395170+00:00,3.025000,-0.033820,
2025-11-12T17:07:39.400170+00:00,3.030000,-0.034960,
2025-11-12T17:07:39.405170+00:00,3.035000,-0.034580,
2025-11-12T17:07:39.410170+00:00,3.040000,-0.033060,
2025-11-12T17:07:39.415170+00:00,3.045000,-0.031540,
2025-11-12T17:07:39.420170+00:00,3.050000,-0.033060,
2025-11-12T17:07:39.425170+00:00,3.055000,-0.032680,
2025-11-12T17:07:39.430170+00:00,3.060000,-0.033820,
2025-11-12T17:07:39.435170+00:00,3.065000,-0.033820,
2025-11-12T17:07:39.440170+00:00,3.070000,-0.034200,
2025-11-12T17:07:39.445170+00:00,3.075000,-0.035340,
2025-11-12T17:07:39.450170+00:00,3.080000,-0.033820,
2025-11-12T17:07:39.455170+00:00,3.085000,-0.029260,
2025-11-12T17:07:39.460170+00:00,3.090000,-0.027740,
2025-11-12T17:07:39.465170+00:00,3.095000,-0.028120,
2025-11-12T17:07:39.470170+00:00,3.100000,-0.029640,
2025-11-12T17:07:39.475170+00:00,3.105000,-0.032300,
2025-11-12T17:07:39.480170+00:00,3.110000,-0.032680,
2025-11-12T17:07:39.485170+00:00,3.115000,-0.032300,
2025-11-12T17:07:39.490170+00:00,3.120000,-0.031920,
2025-11-12T17:07:39.495170+00:00,3.125000,-0.031920,
2025-11-12T17:07:39.500170+00:00,3.130000,-0.030020,
2025-11-12T17:07:39.505170+00:00,3.135000,-0.029640,
2025-11-12T17:07:39.510170+00:00,3.140000,-0.026600,
2025-11-12T17:07:39.515170+00:00,3.145000,-0.026220,
2025-11-12T17:07:39.520170+00:00,3.150000,-0.027740,
2025-11-12T17:07:39.525170+00:00,3.155000,-0.030020,
2025-11-12T17:07:39.530170+00:00,3.160000,-0.032300,
2025-11-12T17:07:39.535170+00:00,3.165000,-0.032680,
2025-11-12T17:07:39.540170+00:00,3.170000,-0.030780,
2025-11-12T17:07:39.545170+00:00,3.175000,-0.029640,
2025-11-12T17:07:39.550170+00:00,3.180000,-0.029640,
2025-11-12T17:07:39.555170+00:00,3.185000,-0.030020,
2025-11-12T17:07:39.560170+00:00,3.190000,-0.029640,
2025-11-12T17:07:39.565170+00:00,3.195000,-0.029260,
2025-11-12T17:07:39.570170+00:00,3.200000,-0.029640,
2025-11-12T17:07:39.575170+00:00,3.205000,-0.030780,
2025-11-12T17:07:39.580170+00:00,3.210000,-0.031160,
2025-11-12T17:07:39.585170+00:00,3.215000,-0.030780,
2025-11-12T17:07:39.590170+00:00,3.220000,-0.028500,
2025-11-12T17:07:39.595170+00:00,3.225000,-0.027360,
2025-11-12T17:07:39.600170+00:00,3.230000,-0.027740,
2025-11-12T17:07:39.605170+00:00,3.235000,-0.030020,
2025-11-12T17:07:39.610170+00:00,3.240000,-0.030780,
2025-11-12T17:07:39.615170+00:00,3.245000,-0.030400,
2025-11-12T17:07:39.620170+00:00,3.250000,-0.028880,
2025-11-12T17:07:39.625170+00:00,3.255000,-0.027740,
2025-11-12T17:07:39.630170+00:00,3.260000,-0.026600,
2025-11-12T17:07:39.635170+00:00,3.265000,-0.026220,
2025-11-12T17:07:39.640170+00:00,3.270000,-0.025840,
2025-11-12T17:07:39.645170+00:00,3.275000,-0.026220,
2025-11-12T17:07:39.650170+00:00,3.280000,-0.028120,
2025-11-12T17:07:39.655170+00:00,3.285000,-0.027740,
2025-11-12T17:07:39.660170+00:00,3.290000,-0.028120,
2025-11-12T17:07:39.665170+00:00,3.295000,-0.032680,
2025-11-12T17:07:39.670170+00:00,3.300000,-0.038000,
2025-11-12T17:07:39.675170+00:00,3.305000,-0.039900,
2025-11-12T17:07:39.680170+00:00,3.310000,-0.035720,
2025-11-12T17:07:39.685170+00:00,3.315000,-0.024320,
2025-11-12T17:07:39.690170+00:00,3.320000,-0.009120,
2025-11-12T17:07:39.695170+00:00,3.325000,0.007220,
2025-11-12T17:07:39.700170+00:00,3.330000,0.011020,
2025-11-12T17:07:39.705170+00:00,3.335000,-0.003420,
2025-11-12T17:07:39.710170+00:00,3.340000,-0.024700,
2025-11-12T17:07:39.715170+00:00,3.345000,-0.038760,
2025-11-12T17:07:39.720170+00:00,3.350000,-0.039520,
2025-11-12T17:07:39.725170+00:00,3.355000,-0.032680,
2025-11-12T17:07:39.730170+00:00,3.360000,-0.032300,
2025-11-12T17:07:39.735170+00:00,3.365000,-0.039140,
2025-11-12T17:07:39.740170+00:00,3.370000,-0.048640,
2025-11-12T17:07:39.745170+00:00,3.375000,-0.055480,
2025-11-12T17:07:39.750170+00:00,3.380000,-0.055100,
2025-11-12T17:07:39.755170+00:00,3.385000,-0.049780,
2025-11-12T17:07:39.760170+00:00,3.390000,-0.042940,
2025-11-12T17:07:39.765170+00:00,3.395000,-0.036860,
2025-11-12T17:07:39.770170+00:00,3.400000,-0.035340,
2025-11-12T17:07:39.775170+00:00,3.405000,-0.038000,
2025-11-12T17:07:39.780170+00:00,3.410000,-0.036100,
2025-11-12T17:07:39.785170+00:00,3.415000,-0.023940,
2025-11-12T17:07:39.790170+00:00,3.420000,-0.011780,
2025-11-12T17:07:39.795170+00:00,3.425000,0.003040,
2025-11-12T17:07:39.800170+00:00,3.430000,0.053200,
2025-11-12T17:07:39.805170+00:00,3.435000,0.197220,
2025-11-12T17:07:39.810170+00:00,3.440000,0.482980,
2025-11-12T17:07:39.815170+00:00,3.445000,0.857660,
2025-11-12T17:07:39.820170+00:00,3.450000,1.079960,
2025-11-12T17:07:39.825170+00:00,3.455000,0.851580,
2025-11-12T17:07:39.830170+00:00,3.460000,0.154280,
2025-11-12T17:07:39.835170+00:00,3.465000,-0.628140,
2025-11-12T17:07:39.840170+00:00,3.470000,-1.028660,
2025-11-12T17:07:39.845170+00:00,3.475000,-0.929860,
2025-11-12T17:07:39.850170+00:00,3.480000,-0.597740,
2025-11-12T17:07:39.855170+00:00,3.485000,-0.335920,
2025-11-12T17:07:39.860170+00:00,3.490000,-0.213940,
2025-11-12T17:07:39.865170+00:00,3.495000,-0.156180,
2025-11-12T17:07:39.870170+00:00,3.500000,-0.115140,
2025-11-12T17:07:39.875170+00:00,3.505000,-0.091960,
2025-11-12T17:07:39.880170+00:00,3.510000,-0.079040,
2025-11-12T17:07:39.885170+00:00,3.515000,-0.066880,
2025-11-12T17:07:39.890170+00:00,3.520000,-0.054340,
2025-11-12T17:07:39.895170+00:00,3.525000,-0.044460,
2025-11-12T17:07:39.900170+00:00,3.530000,-0.039140,
2025-11-12T17:07:39.905170+00:00,3.535000,-0.033820,
2025-11-12T17:07:39.910170+00:00,3.540000,-0.031540,
2025-11-12T17:07:39.915170+00:00,3.545000,-0.026600,
2025-11-12T17:07:39.920170+00:00,3.550000,-0.022420,
2025-11-12T17:07:39.925170+00:00,3.555000,-0.019760,
2025-11-12T17:07:39.930170+00:00,3.560000,-0.018620,
2025-11-12T17:07:39.935170+00:00,3.565000,-0.015580,
2025-11-12T17:07:39.940170+00:00,3.570000,-0.014440,
2025-11-12T17:07:39.945170+00:00,3.575000,-0.012160,
2025-11-12T17:07:39.950170+00:00,3.580000,-0.009880,
2025-11-12T17:07:39.955170+00:00,3.585000,-0.004560,
2025-11-12T17:07:39.960170+00:00,3.590000,-0.001520,
2025-11-12T17:07:39.965170+00:00,3.595000,0.000000,
2025-11-12T17:07:39.970170+00:00,3.600000,0.000760,
2025-11-12T17:07:39.975170+00:00,3.605000,0.003040,
2025-11-12T17:07:39.980170+00:00,3.610000,0.005320,
2025-11-12T17:07:39.985170+00:00,3.615000,0.012160,
2025-11-12T17:07:39.990170+00:00,3.620000,0.016340,
2025-11-12T17:07:39.995170+00:00,3.625000,0.021660,
2025-11-12T17:07:40.000170+00:00,3.630000,0.025460,
2025-11-12T17:07:40.005170+00:00,3.635000,0.032680,
2025-11-12T17:07:40.010170+00:00,3.640000,0.041040,
2025-11-12T17:07:40.015170+00:00,3.645000,0.052060,
2025-11-12T17:07:40.020170+00:00,3.650000,0.062320,
2025-11-12T17:07:40.025170+00:00,3.655000,0.070300,
2025-11-12T17:07:40.030170+00:00,3.660000,0.077520,
2025-11-12T17:07:40.035170+00:00,3.665000,0.083220,
2025-11-12T17:07:40.040170+00:00,3.670000,0.088160,
2025-11-12T17:07:40.045170+00:00,3.675000,0.090440,
2025-11-12T17:07:40.050170+00:00,3.680000,0.089680,
2025-11-12T17:07:40.055170+00:00,3.685000,0.085880,
2025-11-12T17:07:40.060170+00:00,3.690000,0.080180,
2025-11-12T17:07:40.065170+00:00,3.695000,0.068400,
2025-11-12T17:07:40.070170+00:00,3.700000,0.047120,
2025-11-12T17:07:40.075170+00:00,3.705000,0.017100,
2025-11-12T17:07:40.080170+00:00,3.710000,-0.025080,
2025-11-12T17:07:40.085170+00:00,3.715000,-0.078660,
2025-11-12T17:07:40.090170+00:00,3.720000,-0.140600,
2025-11-12T17:07:40.095170+00:00,3.725000,-0.201400,
2025-11-12T17:07:40.100170+00:00,3.730000,-0.253080,
2025-11-12T17:07:40.105170+00:00,3.735000,-0.287660,
2025-11-12T17:07:40.110170+00:00,3.740000,-0.303240,
2025-11-12T17:07:40.115170+00:00,3.745000,-0.300200,
2025-11-12T17:07:40.120170+00:00,3.750000,-0.285380,
2025-11-12T17:07:40.125170+00:00,3.755000,-0.262960,
2025-11-12T17:07:40.130170+00:00,3.760000,-0.237120,
2025-11-12T17:07:40.135170+00:00,3.765000,-0.209760,
2025-11-12T17:07:40.140170+00:00,3.770000,-0.180120,
2025-11-12T17:07:40.145170+00:00,3.775000,-0.152380,
2025-11-12T17:07:40.150170+00:00,3.780000,-0.127680,
2025-11-12T17:07:40.155170+00:00,3.785000,-0.106400,
2025-11-12T17:07:40.160170+00:00,3.790000,-0.089300,
2025-11-12T17:07:40.165170+00:00,3.795000,-0.074480,
2025-11-12T17:07:40.170170+00:00,3.800000,-0.060800,
2025-11-12T17:07:40.175170+00:00,3.805000,-0.053200,
2025-11-12T17:07:40.180170+00:00,3.810000,-0.047880,
2025-11-12T17:07:40.185170+00:00,3.815000,-0.044460,
2025-11-12T17:07:40.190170+00:00,3.820000,-0.041420,
2025-11-12T17:07:40.195170+00:00,3.825000,-0.037620,
2025-11-12T17:07:40.200170+00:00,3.830000,-0.034960,
2025-11-12T17:07:40.205170+00:00,3.835000,-0.031160,
2025-11-12T17:07:40.210170+00:00,3.840000,-0.027360,
2025-11-12T17:07:40.215170+00:00,3.845000,-0.025080,
2025-11-12T17:07:40.220170+00:00,3.850000,-0.023940,
2025-11-12T17:07:40.225170+00:00,3.855000,-0.025840,
2025-11-12T17:07:40.230170+00:00,3.860000,-0.026220,
2025-11-12T17:07:40.235170+00:00,3.865000,-0.025080,
2025-11-12T17:07:40.240170+00:00,3.870000,-0.022040,
2025-11-12T17:07:40.245170+00:00,3.875000,-0.019760,
2025-11-12T17:07:40.250170+00:00,3.880000,-0.018240,
2025-11-12T17:07:40.255170+00:00,3.885000,-0.019380,
2025-11-12T17:07:40.260170+00:00,3.890000,-0.020140,
2025-11-12T17:07:40.265170+00:00,3.895000,-0.021280,
2025-11-12T17:07:40.270170+00:00,3.900000,-0.023180,
2025-11-12T17:07:40.275170+00:00,3.905000,-0.023940,
2025-11-12T17:07:40.280170+00:00,3.910000,-0.024320,
2025-11-12T17:07:40.285170+00:00,3.915000,-0.023940,
2025-11-12T17:07:40.290170+00:00,3.920000,-0.026220,
2025-11-12T17:07:40.295170+00:00,3.925000,-0.027740,
2025-11-12T17:07:40.300170+00:00,3.930000,-0.028880,
2025-11-12T17:07:40.305170+00:00,3.935000,-0.028880,
2025-11-12T17:07:40.310170+00:00,3.940000,-0.029640,
2025-11-12T17:07:40.315170+00:00,3.945000,-0.031920,
2025-11-12T17:07:40.320170+00:00,3.950000,-0.035720,
2025-11-12T17:07:40.325170+00:00,3.955000,-0.037240,
2025-11-12T17:07:40.330170+00:00,3.960000,-0.036480,
2025-11-12T17:07:40.335170+00:00,3.965000,-0.034580,
2025-11-12T17:07:40.340170+00:00,3.970000,-0.032680,
2025-11-12T17:07:40.345170+00:00,3.975000,-0.032300,
2025-11-12T17:07:40.350170+00:00,3.980000,-0.030400,
2025-11-12T17:07:40.355170+00:00,3.985000,-0.029260,
2025-11-12T17:07:40.360170+00:00,3.990000,-0.028500,
2025-11-12T17:07:40.365170+00:00,3.995000,-0.029260,
2025-11-12T17:07:40.370170+00:00,4.000000,-0.031920,
2025-11-12T17:07:40.375170+00:00,4.005000,-0.033820,
2025-11-12T17:07:40.380170+00:00,4.010000,-0.033440,
2025-11-12T17:07:40.385170+00:00,4.015000,-0.032680,
2025-11-12T17:07:40.390170+00:00,4.020000,-0.031920,
2025-11-12T17:07:40.395170+00:00,4.025000,-0.031920,
2025-11-12T17:07:40.400170+00:00,4.030000,-0.032680,
2025-11-12T17:07:40.405170+00:00,4.035000,-0.031920,
2025-11-12T17:07:40.410170+00:00,4.040000,-0.029260,
2025-11-12T17:07:40.415170+00:00,4.045000,-0.027360,
2025-11-12T17:07:40.420170+00:00,4.050000,-0.026600,
2025-11-12T17:07:40.425170+00:00,4.055000,-0.026220,
2025-11-12T17:07:40.430170+00:00,4.060000,-0.026600,
2025-11-12T17:07:40.435170+00:00,4.065000,-0.027360,
2025-11-12T17:07:40.440170+00:00,4.070000,-0.028120,
2025-11-12T17:07:40.445170+00:00,4.075000,-0.028120,
2025-11-12T17:07:40.450170+00:00,4.080000,-0.029640,
2025-11-12T17:07:40.455170+00:00,4.085000,-0.029640,
2025-11-12T17:07:40.460170+00:00,4.090000,-0.029260,
2025-11-12T17:07:40.465170+00:00,4.095000,-0.030400,
2025-11-12T17:07:40.470170+00:00,4.100000,-0.030400,
2025-11-12T17:07:40.475170+00:00,4.105000,-0.029260,
2025-11-12T17:07:40.480170+00:00,4.110000,-0.027360,
2025-11-12T17:07:40.485170+00:00,4.115000,-0.024700,
2025-11-12T17:07:40.490170+00:00,4.120000,-0.025460,
2025-11-12T17:07:40.495170+00:00,4.125000,-0.027740,
2025-11-12T17:07:40.500170+00:00,4.130000,-0.028880,
2025-11-12T17:07:40.505170+00:00,4.135000,-0.027740,
2025-11-12T17:07:40.510170+00:00,4.140000,-0.026600,
2025-11-12T17:07:40.515170+00:00,4.145000,-0.025840,
2025-11-12T17:07:40.520170+00:00,4.150000,-0.027740,
2025-11-12T17:07:40.525170+00:00,4.155000,-0.030780,
2025-11-12T17:07:40.530170+00:00,4.160000,-0.031540,
2025-11-12T17:07:40.535170+00:00,4.165000,-0.029640,
2025-11-12T17:07:40.540170+00:00,4.170000,-0.027360,
2025-11-12T17:07:40.545170+00:00,4.175000,-0.027360,
2025-11-12T17:07:40.550170+00:00,4.180000,-0.028500,
2025-11-12T17:07:40.555170+00:00,4.185000,-0.030400,
2025-11-12T17:07:40.560170+00:00,4.190000,-0.030400,
2025-11-12T17:07:40.565170+00:00,4.195000,-0.028500,
2025-11-12T17:07:40.570170+00:00,4.200000,-0.025460,
2025-11-12T17:07:40.575170+00:00,4.205000,-0.024700,
2025-11-12T17:07:40.580170+00:00,4.210000,-0.028120,
2025-11-12T17:07:40.585170+00:00,4.215000,-0.031160,
2025-11-12T17:07:40.590170+00:00,4.220000,-0.033820,
2025-11-12T17:07:40.595170+00:00,4.225000,-0.034200,
2025-11-12T17:07:40.600170+00:00,4.230000,-0.029640,
2025-11-12T17:07:40.605170+00:00,4.235000,-0.016720,
2025-11-12T17:07:40.610170+00:00,4.240000,0.001520,
2025-11-12T17:07:40.615170+00:00,4.245000,0.015960,
2025-11-12T17:07:40.620170+00:00,4.250000,0.012920,
2025-11-12T17:07:40.625170+00:00,4.255000,-0.006460,
2025-11-12T17:07:40.630170+00:00,4.260000,-0.027740,
2025-11-12T17:07:40.635170+00:00,4.265000,-0.037620,
2025-11-12T17:07:40.640170+00:00,4.270000,-0.036860,
2025-11-12T17:07:40.645170+00:00,4.275000,-0.033440,
2025-11-12T17:07:40.650170+00:00,4.280000,-0.034960,
2025-11-12T17:07:40.655170+00:00,4.285000,-0.040280,
2025-11-12T17:07:40.660170+00:00,4.290000,-0.047120,
2025-11-12T17:07:40.665170+00:00,4.295000,-0.052440,
2025-11-12T17:07:40.670170+00:00,4.300000,-0.052060,
2025-11-12T17:07:40.675170+00:00,4.305000,-0.049020,
2025-11-12T17:07:40.680170+00:00,4.310000,-0.041420,
2025-11-12T17:07:40.685170+00:00,4.315000,-0.036100,
2025-11-12T17:07:40.690170+00:00,4.320000,-0.034580,
2025-11-12T17:07:40.695170+00:00,4.325000,-0.036480,
2025-11-12T17:07:40.700170+00:00,4.330000,-0.029260,
2025-11-12T17:07:40.705170+00:00,4.335000,-0.015580,
2025-11-12T17:07:40.710170+00:00,4.340000,-0.004560,
2025-11-12T17:07:40.715170+00:00,4.345000,0.015200,
2025-11-12T17:07:40.720170+00:00,4.350000,0.089680,
2025-11-12T17:07:40.725170+00:00,4.355000,0.277020,
2025-11-12T17:07:40.730170+00:00,4.360000,0.605720,
2025-11-12T17:07:40.735170+00:00,4.365000,0.964440,
2025-11-12T17:07:40.740170+00:00,4.370000,1.069700,
2025-11-12T17:07:40.745170+00:00,4.375000,0.676020,
2025-11-12T17:07:40.750170+00:00,4.380000,-0.103360,
2025-11-12T17:07:40.755170+00:00,4.385000,-0.809020,
2025-11-12T17:07:40.760170+00:00,4.390000,-1.048040,
2025-11-12T17:07:40.765170+00:00,4.395000,-0.838660,
2025-11-12T17:07:40.770170+00:00,4.400000,-0.498940,
2025-11-12T17:07:40.775170+00:00,4.405000,-0.281960,
2025-11-12T17:07:40.780170+00:00,4.410000,-0.191520,
2025-11-12T17:07:40.785170+00:00,4.415000,-0.143260,
2025-11-12T17:07:40.790170+00:00,4.420000,-0.105640,
2025-11-12T17:07:40.795170+00:00,4.425000,-0.083220,
2025-11-12T17:07:40.800170+00:00,4.430000,-0.068400,
2025-11-12T17:07:40.805170+00:00,4.435000,-0.058520,
2025-11-12T17:07:40.810170+00:00,4.440000,-0.050540,
2025-11-12T17:07:40.815170+00:00,4.445000,-0.041800,
2025-11-12T17:07:40.820170+00:00,4.450000,-0.033060,
2025-11-12T17:07:40.825170+00:00,4.455000,-0.024700,
2025-11-12T17:07:40.830170+00:00,4.460000,-0.019380,
2025-11-12T17:07:40.835170+00:00,4.465000,-0.017860,
2025-11-12T17:07:40.840170+00:00,4.470000,-0.016720,
2025-11-12T17:07:40.845170+00:00,4.475000,-0.015200,
2025-11-12T17:07:40.850170+00:00,4.480000,-0.013300,
2025-11-12T17:07:40.855170+00:00,4.485000,-0.012920,
2025-11-12T17:07:40.860170+00:00,4.490000,-0.011400,
2025-11-12T17:07:40.865170+00:00,4.495000,-0.009120,
2025-11-12T17:07:40.870170+00:00,4.500000,-0.006080,
2025-11-12T17:07:40.875170+00:00,4.505000,-0.004180,
2025-11-12T17:07:40.880170+00:00,4.510000,-0.003040,
2025-11-12T17:07:40.885170+00:00,4.515000,-0.001900,
2025-11-12T17:07:40.890170+00:00,4.520000,0.000760,
2025-11-12T17:07:40.895170+00:00,4.525000,0.004940,
2025-11-12T17:07:40.900170+00:00,4.530000,0.009120,
2025-11-12T17:07:40.905170+00:00,4.535000,0.012540,
2025-11-12T17:07:40.910170+00:00,4.540000,0.017480,
2025-11-12T17:07:40.915170+00:00,4.545000,0.023180,
2025-11-12T17:07:40.920170+00:00,4.550000,0.030020,
2025-11-12T17:07:40.925170+00:00,4.555000,0.037240,
2025-11-12T17:07:40.930170+00:00,4.560000,0.046740,
2025-11-12T17:07:40.935170+00:00,4.565000,0.057760,
2025-11-12T17:07:40.940170+00:00,4.570000,0.067260,
2025-11-12T17:07:40.945170+00:00,4.575000,0.076380,
2025-11-12T17:07:40.950170+00:00,4.580000,0.083600,
2025-11-12T17:07:40.955170+00:00,4.585000,0.090060,
2025-11-12T17:07:40.960170+00:00,4.590000,0.094240,
2025-11-12T17:07:40.965170+00:00,4.595000,0.096900,
2025-11-12T17:07:40.970170+00:00,4.600000,0.095760,
2025-11-12T17:07:40.975170+00:00,4.605000,0.091580,
2025-11-12T17:07:40.980170+00:00,4.610000,0.079420,
2025-11-12T17:07:40.985170+00:00,4.615000,0.063460,
2025-11-12T17:07:40.990170+00:00,4.620000,0.041800,
2025-11-12T17:07:40.995170+00:00,4.625000,0.009880,
2025-11-12T17:07:41.000170+00:00,4.630000,-0.036100,
2025-11-12T17:07:41.005170+00:00,4.635000,-0.095000,
2025-11-12T17:07:41.010170+00:00,4.640000,-0.160360,
2025-11-12T17:07:41.015170+00:00,4.645000,-0.220400,
2025-11-12T17:07:41.020170+00:00,4.650000,-0.267900,
2025-11-12T17:07:41.025170+00:00,4.655000,-0.297540,
2025-11-12T17:07:41.030170+00:00,4.660000,-0.310460,
2025-11-12T17:07:41.035170+00:00,4.665000,-0.305900,
2025-11-12T17:07:41.040170+00:00,4.670000,-0.287660,
2025-11-12T17:07:41.045170+00:00,4.675000,-0.262200,
2025-11-12T17:07:41.050170+00:00,4.680000,-0.231800,
2025-11-12T17:07:41.055170+00:00,4.685000,-0.200640,
2025-11-12T17:07:41.060170+00:00,4.690000,-0.172520,
2025-11-12T17:07:41.065170+00:00,4.695000,-0.145920,
2025-11-12T17:07:41.070170+00:00,4.700000,-0.122360,
2025-11-12T17:07:41.075170+00:00,4.705000,-0.100320,
2025-11-12T17:07:41.080170+00:00,4.710000,-0.082840,
2025-11-12T17:07:41.085170+00:00,4.715000,-0.067640,
2025-11-12T17:07:41.090170+00:00,4.720000,-0.057760,
2025-11-12T17:07:41.095170+00:00,4.725000,-0.051300,
2025-11-12T17:07:41.100170+00:00,4.730000,-0.045980,
2025-11-12T17:07:41.105170+00:00,4.735000,-0.040660,
2025-11-12T17:07:41.110170+00:00,4.740000,-0.035720,
2025-11-12T17:07:41.115170+00:00,4.745000,-0.035340,
2025-11-12T17:07:41.120170+00:00,4.750000,-0.033820,
2025-11-12T17:07:41.125170+00:00,4.755000,-0.031160,
2025-11-12T17:07:41.130170+00:00,4.760000,-0.026600,
2025-11-12T17:07:41.135170+00:00,4.765000,-0.023560,
2025-11-12T17:07:41.140170+00:00,4.770000,-0.023940,
2025-11-12T17:07:41.145170+00:00,4.775000,-0.023940,
2025-11-12T17:07:41.150170+00:00,4.780000,-0.023560,
2025-11-12T17:07:41.155170+00:00,4.785000,-0.023180,
2025-11-12T17:07:41.160170+00:00,4.790000,-0.022420,
2025-11-12T17:07:41.165170+00:00,4.795000,-0.020900,
2025-11-12T17:07:41.170170+00:00,4.800000,-0.019380,
2025-11-12T17:07:41.175170+00:00,4.805000,-0.019000,
2025-11-12T17:07:41.180170+00:00,4.810000,-0.020140,
2025-11-12T17:07:41.185170+00:00,4.815000,-0.020900,
2025-11-12T17:07:41.190170+00:00,4.820000,-0.022800,
2025-11-12T17:07:41.195170+00:00,4.825000,-0.024320,
2025-11-12T17:07:41.200170+00:00,4.830000,-0.025460,
2025-11-12T17:07:41.205170+00:00,4.835000,-0.025840,
2025-11-12T17:07:41.210170+00:00,4.840000,-0.027740,
2025-11-12T17:07:41.215170+00:00,4.845000,-0.030400,
2025-11-12T17:07:41.220170+00:00,4.850000,-0.032680,
2025-11-12T17:07:41.225170+00:00,4.855000,-0.033060,
2025-11-12T17:07:41.230170+00:00,4.860000,-0.032680,
2025-11-12T17:07:41.235170+00:00,4.865000,-0.032300,
2025-11-12T17:07:41.240170+00:00,4.870000,-0.032300,
2025-11-12T17:07:41.245170+00:00,4.875000,-0.031540,
2025-11-12T17:07:41.250170+00:00,4.880000,-0.030400,
2025-11-12T17:07:41.255170+00:00,4.885000,-0.031160,
2025-11-12T17:07:41.260170+00:00,4.890000,-0.032300,
2025-11-12T17:07:41.265170+00:00,4.895000,-0.033440,
2025-11-12T17:07:41.270170+00:00,4.900000,-0.033440,
2025-11-12T17:07:41.275170+00:00,4.905000,-0.034960,
2025-11-12T17:07:41.280170+00:00,4.910000,-0.033820,
2025-11-12T17:07:41.285170+00:00,4.915000,-0.034960,
2025-11-12T17:07:41.290170+00:00,4.920000,-0.033820,
2025-11-12T17:07:41.295170+00:00,4.925000,-0.033440,
2025-11-12T17:07:41.300170+00:00,4.930000,-0.032680,
2025-11-12T17:07:41.305170+00:00,4.935000,-0.033060,
2025-11-12T17:07:41.310170+00:00,4.940000,-0.031920,
2025-11-12T17:07:41.315170+00:00,4.945000,-0.029260,
2025-11-12T17:07:41.320170+00:00,4.950000,-0.026980,
2025-11-12T17:07:41.325170+00:00,4.955000,-0.027360,
2025-11-12T17:07:41.330170+00:00,4.960000,-0.029640,
2025-11-12T17:07:41.335170+00:00,4.965000,-0.033440,
2025-11-12T17:07:41.340170+00:00,4.970000,-0.032680,
2025-11-12T17:07:41.345170+00:00,4.975000,-0.030400,
2025-11-12T17:07:41.350170+00:00,4.980000,-0.027740,
2025-11-12T17:07:41.355170+00:00,4.985000,-0.027360,
2025-11-12T17:07:41.360170+00:00,4.990000,-0.028500,
2025-11-12T17:07:41.365170+00:00,4.995000,-0.029640,
2025-11-12T17:07:41.370170+00:00,5.000000,-0.031160,
2025-11-12T17:07:41.375170+00:00,5.005000,-0.032300,
2025-11-12T17:07:41.380170+00:00,5.010000,-0.030400,
2025-11-12T17:07:41.385170+00:00,5.015000,-0.028120,
2025-11-12T17:07:41.390170+00:00,5.020000,-0.026220,
2025-11-12T17:07:41.395170+00:00,5.025000,-0.025460,
2025-11-12T17:07:41.400170+00:00,5.030000,-0.025460,
2025-11-12T17:07:41.405170+00:00,5.035000,-0.025840,
2025-11-12T17:07:41.410170+00:00,5.040000,-0.025840,
2025-11-12T17:07:41.415170+00:00,5.045000,-0.027360,
2025-11-12T17:07:41.420170+00:00,5.050000,-0.029640,
2025-11-12T17:07:41.425170+00:00,5.055000,-0.030020,
2025-11-12T17:07:41.430170+00:00,5.060000,-0.030020,
2025-11-12T17:07:41.435170+00:00,5.065000,-0.029260,
2025-11-12T17:07:41.440170+00:00,5.070000,-0.027360,
2025-11-12T17:07:41.445170+00:00,5.075000,-0.026600,
2025-11-12T17:07:41.450170+00:00,5.080000,-0.026220,
2025-11-12T17:07:41.455170+00:00,5.085000,-0.027740,
2025-11-12T17:07:41.460170+00:00,5.090000,-0.029260,
2025-11-12T17:07:41.465170+00:00,5.095000,-0.029640,
2025-11-12T17:07:41.470170+00:00,5.100000,-0.029260,
2025-11-12T17:07:41.475170+00:00,5.105000,-0.028120,
2025-11-12T17:07:41.480170+00:00,5.110000,-0.027740,
2025-11-12T17:07:41.485170+00:00,5.115000,-0.028120,
2025-11-12T17:07:41.490170+00:00,5.120000,-0.028500,
2025-11-12T17:07:41.495170+00:00,5.125000,-0.028500,
2025-11-12T17:07:41.500170+00:00,5.130000,-0.028500,
2025-11-12T17:07:41.505170+00:00,5.135000,-0.028120,
2025-11-12T17:07:41.510170+00:00,5.140000,-0.027740,
2025-11-12T17:07:41.515170+00:00,5.145000,-0.026980,
2025-11-12T17:07:41.520170+00:00,5.150000,-0.026600,
2025-11-12T17:07:41.525170+00:00,5.155000,-0.026980,
2025-11-12T17:07:41.530170+00:00,5.160000,-0.028120,
2025-11-12T17:07:41.535170+00:00,5.165000,-0.028500,
2025-11-12T17:07:41.540170+00:00,5.170000,-0.027740,
2025-11-12T17:07:41.545170+00:00,5.175000,-0.026980,
2025-11-12T17:07:41.550170+00:00,5.180000,-0.028880,
2025-11-12T17:07:41.555170+00:00,5.185000,-0.033060,
2025-11-12T17:07:41.560170+00:00,5.190000,-0.034960,
2025-11-12T17:07:41.565170+00:00,5.195000,-0.032300,
2025-11-12T17:07:41.570170+00:00,5.200000,-0.020140,
2025-11-12T17:07:41.575170+00:00,5.205000,-0.001520,
2025-11-12T17:07:41.580170+00:00,5.210000,0.014060,
2025-11-12T17:07:41.585170+00:00,5.215000,0.013680,
2025-11-12T17:07:41.590170+00:00,5.220000,-0.001140,
2025-11-12T17:07:41.595170+00:00,5.225000,-0.022040,
2025-11-12T17:07:41.600170+00:00,5.230000,-0.034960,
2025-11-12T17:07:41.605170+00:00,5.235000,-0.036860,
2025-11-12T17:07:41.610170+00:00,5.240000,-0.034200,
2025-11-12T17:07:41.615170+00:00,5.245000,-0.034200,
2025-11-12T17:07:41.620170+00:00,5.250000,-0.037240,
2025-11-12T17:07:41.625170+00:00,5.255000,-0.042560,
2025-11-12T17:07:41.630170+00:00,5.260000,-0.050540,
2025-11-12T17:07:41.635170+00:00,5.265000,-0.052820,
2025-11-12T17:07:41.640170+00:00,5.270000,-0.050160,
2025-11-12T17:07:41.645170+00:00,5.275000,-0.042560,
2025-11-12T17:07:41.650170+00:00,5.280000,-0.037620,
2025-11-12T17:07:41.655170+00:00,5.285000,-0.036480,
2025-11-12T17:07:41.660170+00:00,5.290000,-0.037240,
2025-11-12T17:07:41.665170+00:00,5.295000,-0.032680,
2025-11-12T17:07:41.670170+00:00,5.300000,-0.019760,
2025-11-12T17:07:41.675170+00:00,5.305000,-0.009120,
2025-11-12T17:07:41.680170+00:00,5.310000,0.004560,
2025-11-12T17:07:41.685170+00:00,5.315000,0.054340,
2025-11-12T17:07:41.690170+00:00,5.320000,0.197980,
2025-11-12T17:07:41.695170+00:00,5.325000,0.481460,
2025-11-12T17:07:41.700170+00:00,5.330000,0.854240,
2025-11-12T17:07:41.705170+00:00,5.335000,1.085280,
2025-11-12T17:07:41.710170+00:00,5.340000,0.875900,
2025-11-12T17:07:41.715170+00:00,5.345000,0.193800,
2025-11-12T17:07:41.720170+00:00,5.350000,-0.593180,
2025-11-12T17:07:41.725170+00:00,5.355000,-1.016120,
2025-11-12T17:07:41.730170+00:00,5.360000,-0.940500,
2025-11-12T17:07:41.735170+00:00,5.365000,-0.614460,
2025-11-12T17:07:41.740170+00:00,5.370000,-0.347320,
2025-11-12T17:07:41.745170+00:00,5.375000,-0.222300,
2025-11-12T17:07:41.750170+00:00,5.380000,-0.166060,
2025-11-12T17:07:41.755170+00:00,5.385000,-0.124640,
2025-11-12T17:07:41.760170+00:00,5.390000,-0.096520,
2025-11-12T17:07:41.765170+00:00,5.395000,-0.078660,
2025-11-12T17:07:41.770170+00:00,5.400000,-0.062700,
2025-11-12T17:07:41.775170+00:00,5.405000,-0.050540,
2025-11-12T17:07:41.780170+00:00,5.410000,-0.042560,
2025-11-12T17:07:41.785170+00:00,5.415000,-0.037240,
2025-11-12T17:07:41.790170+00:00,5.420000,-0.033440,
2025-11-12T17:07:41.795170+00:00,5.425000,-0.031160,
2025-11-12T17:07:41.800170+00:00,5.430000,-0.026220,
2025-11-12T17:07:41.805170+00:00,5.435000,-0.020140,
2025-11-12T17:07:41.810170+00:00,5.440000,-0.016340,
2025-11-12T17:07:41.815170+00:00,5.445000,-0.015580,
2025-11-12T17:07:41.820170+00:00,5.450000,-0.014440,
2025-11-12T17:07:41.825170+00:00,5.455000,-0.013300,
2025-11-12T17:07:41.830170+00:00,5.460000,-0.010640,
2025-11-12T17:07:41.835170+00:00,5.465000,-0.008360,
2025-11-12T17:07:41.840170+00:00,5.470000,-0.004180,
2025-11-12T17:07:41.845170+00:00,5.475000,-0.000760,
2025-11-12T17:07:41.850170+00:00,5.480000,0.000760,
2025-11-12T17:07:41.855170+00:00,5.485000,0.001520,
2025-11-12T17:07:41.860170+00:00,5.490000,0.003040,
2025-11-12T17:07:41.865170+00:00,5.495000,0.006080,
2025-11-12T17:07:41.870170+00:00,5.500000,0.009500,
2025-11-12T17:07:41.875170+00:00,5.505000,0.013680,
2025-11-12T17:07:41.880170+00:00,5.510000,0.020140,
2025-11-12T17:07:41.885170+00:00,5.515000,0.028880,
2025-11-12T17:07:41.890170+00:00,5.520000,0.036860,
2025-11-12T17:07:41.895170+00:00,5.525000,0.042940,
2025-11-12T17:07:41.900170+00:00,5.530000,0.050920,
2025-11-12T17:07:41.905170+00:00,5.535000,0.060800,
2025-11-12T17:07:41.910170+00:00,5.540000,0.071440,
2025-11-12T17:07:41.915170+00:00,5.545000,0.079800,
2025-11-12T17:07:41.920170+00:00,5.550000,0.085500,
2025-11-12T17:07:41.925170+00:00,5.555000,0.090060,
2025-11-12T17:07:41.930170+00:00,5.560000,0.092340,
2025-11-12T17:07:41.935170+00:00,5.565000,0.094620,
2025-11-12T17:07:41.940170+00:00,5.570000,0.091960,
2025-11-12T17:07:41.945170+00:00,5.575000,0.084360,
2025-11-12T17:07:41.950170+00:00,5.580000,0.074480,
2025-11-12T17:07:41.955170+00:00,5.585000,0.058900,
2025-11-12T17:07:41.960170+00:00,5.590000,0.037240,
2025-11-12T17:07:41.965170+00:00,5.595000,0.001520,
2025-11-12T17:07:41.970170+00:00,5.600000,-0.048260,
2025-11-12T17:07:41.975170+00:00,5.605000,-0.108680,
2025-11-12T17:07:41.980170+00:00,5.610000,-0.170620,
2025-11-12T17:07:41.985170+00:00,5.615000,-0.224960,
2025-11-12T17:07:41.990170+00:00,5.620000,-0.268280,
2025-11-12T17:07:41.995170+00:00,5.625000,-0.294880,
2025-11-12T17:07:42.000170+00:00,5.630000,-0.302480,
2025-11-12T17:07:42.005170+00:00,5.635000,-0.296780,
2025-11-12T17:07:42.010170+00:00,5.640000,-0.279300,
2025-11-12T17:07:42.015170+00:00,5.645000,-0.254600,
2025-11-12T17:07:42.020170+00:00,5.650000,-0.224200,
2025-11-12T17:07:42.025170+00:00,5.655000,-0.193800,
2025-11-12T17:07:42.030170+00:00,5.660000,-0.166060,
2025-11-12T17:07:42.035170+00:00,5.665000,-0.141360,
2025-11-12T17:07:42.040170+00:00,5.670000,-0.119320,
2025-11-12T17:07:42.045170+00:00,5.675000,-0.099180,
2025-11-12T17:07:42.050170+00:00,5.680000,-0.080560,
2025-11-12T17:07:42.055170+00:00,5.685000,-0.068020,
2025-11-12T17:07:42.060170+00:00,5.690000,-0.056620,
2025-11-12T17:07:42.065170+00:00,5.695000,-0.052060,
2025-11-12T17:07:42.070170+00:00,5.700000,-0.048640,
2025-11-12T17:07:42.075170+00:00,5.705000,-0.045980,
2025-11-12T17:07:42.080170+00:00,5.710000,-0.042180,
2025-11-12T17:07:42.085170+00:00,5.715000,-0.039900,
2025-11-12T17:07:42.090170+00:00,5.720000,-0.036480,
2025-11-12T17:07:42.095170+00:00,5.725000,-0.032300,
2025-11-12T17:07:42.100170+00:00,5.730000,-0.028500,
2025-11-12T17:07:42.105170+00:00,5.735000,-0.026220,
2025-11-12T17:07:42.110170+00:00,5.740000,-0.023560,
2025-11-12T17:07:42.115170+00:00,5.745000,-0.023940,
2025-11-12T17:07:42.120170+00:00,5.750000,-0.025460,
2025-11-12T17:07:42.125170+00:00,5.755000,-0.027360,
2025-11-12T17:07:42.130170+00:00,5.760000,-0.026600,
2025-11-12T17:07:42.135170+00:00,5.765000,-0.023940,
2025-11-12T17:07:42.140170+00:00,5.770000,-0.022420,
2025-11-12T17:07:42.145170+00:00,5.775000,-0.022420,
2025-11-12T17:07:42.150170+00:00,5.780000,-0.023180,
2025-11-12T17:07:42.155170+00:00,5.785000,-0.023180,
2025-11-12T17:07:42.160170+00:00,5.790000,-0.022420,
2025-11-12T17:07:42.165170+00:00,5.795000,-0.023940,
2025-11-12T17:07:42.170170+00:00,5.800000,-0.026980,
2025-11-12T17:07:42.175170+00:00,5.805000,-0.028880,
2025-11-12T17:07:42.180170+00:00,5.810000,-0.030400,
2025-11-12T17:07:42.185170+00:00,5.815000,-0.028880,
2025-11-12T17:07:42.190170+00:00,5.820000,-0.029640,
2025-11-12T17:07:42.195170+00:00,5.825000,-0.030400,
2025-11-12T17:07:42.200170+00:00,5.830000,-0.031920,
2025-11-12T17:07:42.205170+00:00,5.835000,-0.031540,
2025-11-12T17:07:42.210170+00:00,5.840000,-0.029640,
2025-11-12T17:07:42.215170+00:00,5.845000,-0.027360,
2025-11-12T17:07:42.220170+00:00,5.850000,-0.028120,
2025-11-12T17:07:42.225170+00:00,5.855000,-0.030400,
2025-11-12T17:07:42.230170+00:00,5.860000,-0.033060,
2025-11-12T17:07:42.235170+00:00,5.865000,-0.034200,
2025-11-12T17:07:42.240170+00:00,5.870000,-0.033440,
2025-11-12T17:07:42.245170+00:00,5.875000,-0.033820,
2025-11-12T17:07:42.250170+00:00,5.880000,-0.032680,
2025-11-12T17:07:42.255170+00:00,5.885000,-0.031920,
2025-11-12T17:07:42.260170+00:00,5.890000,-0.030780,
2025-11-12T17:07:42.265170+00:00,5.895000,-0.031160,
2025-11-12T17:07:42.270170+00:00,5.900000,-0.031920,
2025-11-12T17:07:42.275170+00:00,5.905000,-0.032300,
2025-11-12T17:07:42.280170+00:00,5.910000,-0.031920,
2025-11-12T17:07:42.285170+00:00,5.915000,-0.031540,
2025-11-12T17:07:42.290170+00:00,5.920000,-0.030020,
2025-11-12T17:07:42.295170+00:00,5.925000,-0.028120,
2025-11-12T17:07:42.300170+00:00,5.930000,-0.027360,
2025-11-12T17:07:42.305170+00:00,5.935000,-0.028120,
2025-11-12T17:07:42.310170+00:00,5.940000,-0.029640,
2025-11-12T17:07:42.315170+00:00,5.945000,-0.027360,
2025-11-12T17:07:42.320170+00:00,5.950000,-0.023940,
2025-11-12T17:07:42.325170+00:00,5.955000,-0.024320,
2025-11-12T17:07:42.330170+00:00,5.960000,-0.028500,
2025-11-12T17:07:42.335170+00:00,5.965000,-0.031920,
2025-11-12T17:07:42.340170+00:00,5.970000,-0.032680,
2025-11-12T17:07:42.345170+00:00,5.975000,-0.031920,
2025-11-12T17:07:42.350170+00:00,5.980000,-0.029260,
2025-11-12T17:07:42.355170+00:00,5.985000,-0.026980,
2025-11-12T17:07:42.360170+00:00,5.990000,-0.026600,
2025-11-12T17:07:42.365170+00:00,5.995000,-0.028120,
2025-11-12T17:07:42.370170+00:00,6.000000,-0.031540,
2025-11-12T17:07:42.375170+00:00,6.005000,-0.030780,
2025-11-12T17:07:42.380170+00:00,6.010000,-0.026980,
2025-11-12T17:07:42.385170+00:00,6.015000,-0.023560,
2025-11-12T17:07:42.390170+00:00,6.020000,-0.023180,
2025-11-12T17:07:42.395170+00:00,6.025000,-0.026220,
2025-11-12T17:07:42.400170+00:00,6.030000,-0.029260,
2025-11-12T17:07:42.405170+00:00,6.035000,-0.031160,
2025-11-12T17:07:42.410170+00:00,6.040000,-0.031920,
2025-11-12T17:07:42.415170+00:00,6.045000,-0.030780,
2025-11-12T17:07:42.420170+00:00,6.050000,-0.029260,
2025-11-12T17:07:42.425170+00:00,6.055000,-0.028880,
2025-11-12T17:07:42.430170+00:00,6.060000,-0.030780,
2025-11-12T17:07:42.435170+00:00,6.065000,-0.030780,
2025-11-12T17:07:42.440170+00:00,6.070000,-0.028880,
2025-11-12T17:07:42.445170+00:00,6.075000,-0.025460,
2025-11-12T17:07:42.450170+00:00,6.080000,-0.024700,
2025-11-12T17:07:42.455170+00:00,6.085000,-0.026980,
2025-11-12T17:07:42.460170+00:00,6.090000,-0.028880,
2025-11-12T17:07:42.465170+00:00,6.095000,-0.028500,
2025-11-12T17:07:42.470170+00:00,6.100000,-0.028500,
2025-11-12T17:07:42.475170+00:00,6.105000,-0.028880,
2025-11-12T17:07:42.480170+00:00,6.110000,-0.028880,
2025-11-12T17:07:42.485170+00:00,6.115000,-0.024320,
2025-11-12T17:07:42.490170+00:00,6.120000,-0.020140,
2025-11-12T17:07:42.495170+00:00,6.125000,-0.025080,
2025-11-12T17:07:42.500170+00:00,6.130000,-0.034580,
2025-11-12T17:07:42.505170+00:00,6.135000,-0.042560,
2025-11-12T17:07:42.510170+00:00,6.140000,-0.041040,
2025-11-12T17:07:42.515170+00:00,6.145000,-0.031920,
2025-11-12T17:07:42.520170+00:00,6.150000,-0.018240,
2025-11-12T17:07:42.525170+00:00,6.155000,-0.002660,
2025-11-12T17:07:42.530170+00:00,6.160000,0.008360,
2025-11-12T17:07:42.535170+00:00,6.165000,0.003420,
2025-11-12T17:07:42.540170+00:00,6.170000,-0.015200,
2025-11-12T17:07:42.545170+00:00,6.175000,-0.034960,
2025-11-12T17:07:42.550170+00:00,6.180000,-0.040280,
2025-11-12T17:07:42.555170+00:00,6.185000,-0.033060,
2025-11-12T17:07:42.560170+00:00,6.190000,-0.027360,
2025-11-12T17:07:42.565170+00:00,6.195000,-0.030780,
2025-11-12T17:07:42.570170+00:00,6.200000,-0.039900,
2025-11-12T17:07:42.575170+00:00,6.205000,-0.049400,
2025-11-12T17:07:42.580170+00:00,6.210000,-0.053960,
2025-11-12T17:07:42.585170+00:00,6.215000,-0.054720,
2025-11-12T17:07:42.590170+00:00,6.220000,-0.049400,
2025-11-12T17:07:42.595170+00:00,6.225000,-0.042940,
2025-11-12T17:07:42.600170+00:00,6.230000,-0.035720,
2025-11-12T17:07:42.605170+00:00,6.235000,-0.029260,
2025-11-12T17:07:42.610170+00:00,6.240000,-0.027740,
2025-11-12T17:07:42.615170+00:00,6.245000,-0.024700,
2025-11-12T17:07:42.620170+00:00,6.250000,-0.018620,
2025-11-12T17:07:42.625170+00:00,6.255000,-0.013680,
2025-11-12T17:07:42.630170+00:00,6.260000,0.004560,
2025-11-12T17:07:42.635170+00:00,6.265000,0.074480,
2025-11-12T17:07:42.640170+00:00,6.270000,0.250800,
2025-11-12T17:07:42.645170+00:00,6.275000,0.559360,
2025-11-12T17:07:42.650170+00:00,6.280000,0.905160,
2025-11-12T17:07:42.655170+00:00,6.285000,1.023720,
2025-11-12T17:07:42.660170+00:00,6.290000,0.674120,
2025-11-12T17:07:42.665170+00:00,6.295000,-0.057380,
2025-11-12T17:07:42.670170+00:00,6.300000,-0.748600,
2025-11-12T17:07:42.675170+00:00,6.305000,-1.012700,
2025-11-12T17:07:42.680170+00:00,6.310000,-0.839800,
2025-11-12T17:07:42.685170+00:00,6.315000,-0.519840,
2025-11-12T17:07:42.690170+00:00,6.320000,-0.296020,
2025-11-12T17:07:42.695170+00:00,6.325000,-0.190760,
2025-11-12T17:07:42.700170+00:00,6.330000,-0.134900,
2025-11-12T17:07:42.705170+00:00,6.335000,-0.097660,
2025-11-12T17:07:42.710170+00:00,6.340000,-0.079040,
2025-11-12T17:07:42.715170+00:00,6.345000,-0.066880,
2025-11-12T17:07:42.720170+00:00,6.350000,-0.054720,
2025-11-12T17:07:42.725170+00:00,6.355000,-0.043320,
2025-11-12T17:07:42.730170+00:00,6.360000,-0.035720,
2025-11-12T17:07:42.735170+00:00,6.365000,-0.032300,
2025-11-12T17:07:42.740170+00:00,6.370000,-0.031160,
2025-11-12T17:07:42.745170+00:00,6.375000,-0.028880,
2025-11-12T17:07:42.750170+00:00,6.380000,-0.024320,
2025-11-12T17:07:42.755170+00:00,6.385000,-0.021280,
2025-11-12T17:07:42.760170+00:00,6.390000,-0.018620,
2025-11-12T17:07:42.765170+00:00,6.395000,-0.016340,
2025-11-12T17:07:42.770170+00:00,6.400000,-0.013300,
2025-11-12T17:07:42.775170+00:00,6.405000,-0.009500,
2025-11-12T17:07:42.780170+00:00,6.410000,-0.008360,
2025-11-12T17:07:42.785170+00:00,6.415000,-0.007600,
2025-11-12T17:07:42.790170+00:00,6.420000,-0.008360,
2025-11-12T17:07:42.795170+00:00,6.425000,-0.006460,
2025-11-12T17:07:42.800170+00:00,6.430000,-0.003420,
2025-11-12T17:07:42.805170+00:00,6.435000,0.001520,
2025-11-12T17:07:42.810170+00:00,6.440000,0.005700,
2025-11-12T17:07:42.815170+00:00,6.445000,0.007220,
2025-11-12T17:07:42.820170+00:00,6.450000,0.006460,
2025-11-12T17:07:42.825170+00:00,6.455000,0.008360,
2025-11-12T17:07:42.830170+00:00,6.460000,0.015580,
2025-11-12T17:07:42.835170+00:00,6.465000,0.026600,
2025-11-12T17:07:42.840170+00:00,6.470000,0.034200,
2025-11-12T17:07:42.845170+00:00,6.475000,0.041420,
2025-11-12T17:07:42.850170+00:00,6.480000,0.049020,
2025-11-12T17:07:42.855170+00:00,6.485000,0.055480,
2025-11-12T17:07:42.860170+00:00,6.490000,0.063460,
2025-11-12T17:07:42.865170+00:00,6.495000,0.074100,
2025-11-12T17:07:42.870170+00:00,6.500000,0.082080,
2025-11-12T17:07:42.875170+00:00,6.505000,0.085500,
2025-11-12T17:07:42.880170+00:00,6.510000,0.083600,
2025-11-12T17:07:42.885170+00:00,6.515000,0.080180,
2025-11-12T17:07:42.890170+00:00,6.520000,0.076000,
2025-11-12T17:07:42.895170+00:00,6.525000,0.072200,
2025-11-12T17:07:42.900170+00:00,6.530000,0.061940,
2025-11-12T17:07:42.905170+00:00,6.535000,0.044460,
2025-11-12T17:07:42.910170+00:00,6.540000,0.017860,
2025-11-12T17:07:42.915170+00:00,6.545000,-0.020520,
2025-11-12T17:07:42.920170+00:00,6.550000,-0.071060,
2025-11-12T17:07:42.925170+00:00,6.555000,-0.127300,
2025-11-12T17:07:42.930170+00:00,6.560000,-0.186580,
2025-11-12T17:07:42.935170+00:00,6.565000,-0.239020,
2025-11-12T17:07:42.940170+00:00,6.570000,-0.278540,
2025-11-12T17:07:42.945170+00:00,6.575000,-0.299440,
2025-11-12T17:07:42.950170+00:00,6.580000,-0.304760,
2025-11-12T17:07:42.955170+00:00,6.585000,-0.297160,
2025-11-12T17:07:42.960170+00:00,6.590000,-0.280820,
2025-11-12T17:07:42.965170+00:00,6.595000,-0.253080,
2025-11-12T17:07:42.970170+00:00,6.600000,-0.222300,
2025-11-12T17:07:42.975170+00:00,6.605000,-0.190000,
2025-11-12T17:07:42.980170+00:00,6.610000,-0.160740,
2025-11-12T17:07:42.985170+00:00,6.615000,-0.137560,
2025-11-12T17:07:42.990170+00:00,6.620000,-0.117040,
2025-11-12T17:07:42.995170+00:00,6.625000,-0.101460,
2025-11-12T17:07:43.000170+00:00,6.630000,-0.087780,
2025-11-12T17:07:43.005170+00:00,6.635000,-0.075240,
2025-11-12T17:07:43.010170+00:00,6.640000,-0.064220,
2025-11-12T17:07:43.015170+00:00,6.645000,-0.055100,
2025-11-12T17:07:43.020170+00:00,6.650000,-0.048260,
2025-11-12T17:07:43.025170+00:00,6.655000,-0.042180,
2025-11-12T17:07:43.030170+00:00,6.660000,-0.039900,
2025-11-12T17:07:43.035170+00:00,6.665000,-0.041420,
2025-11-12T17:07:43.040170+00:00,6.670000,-0.042180,
2025-11-12T17:07:43.045170+00:00,6.675000,-0.038380,
2025-11-12T17:07:43.050170+00:00,6.680000,-0.033440,
2025-11-12T17:07:43.055170+00:00,6.685000,-0.030020,
2025-11-12T17:07:43.060170+00:00,6.690000,-0.028500,
2025-11-12T17:07:43.065170+00:00,6.695000,-0.028500,
2025-11-12T17:07:43.070170+00:00,6.700000,-0.025080,
2025-11-12T17:07:43.075170+00:00,6.705000,-0.020900,
2025-11-12T17:07:43.080170+00:00,6.710000,-0.019000,
2025-11-12T17:07:43.085170+00:00,6.715000,-0.019760,
2025-11-12T17:07:43.090170+00:00,6.720000,-0.021280,
2025-11-12T17:07:43.095170+00:00,6.725000,-0.021280,
2025-11-12T17:07:43.100170+00:00,6.730000,-0.021280,
2025-11-12T17:07:43.105170+00:00,6.735000,-0.022040,
2025-11-12T17:07:43.110170+00:00,6.740000,-0.025840,
2025-11-12T17:07:43.115170+00:00,6.745000,-0.026600,
2025-11-12T17:07:43.120170+00:00,6.750000,-0.024700,
2025-11-12T17:07:43.125170+00:00,6.755000,-0.024700,
2025-11-12T17:07:43.130170+00:00,6.760000,-0.028880,
2025-11-12T17:07:43.135170+00:00,6.765000,-0.032300,
2025-11-12T17:07:43.140170+00:00,6.770000,-0.033820,
2025-11-12T17:07:43.145170+00:00,6.775000,-0.031920,
2025-11-12T17:07:43.150170+00:00,6.780000,-0.032300,
2025-11-12T17:07:43.155170+00:00,6.785000,-0.034580,
2025-11-12T17:07:43.160170+00:00,6.790000,-0.038000,
2025-11-12T17:07:43.165170+00:00,6.795000,-0.038000,
2025-11-12T17:07:43.170170+00:00,6.800000,-0.035340,
2025-11-12T17:07:43.175170+00:00,6.805000,-0.033820,
2025-11-12T17:07:43.180170+00:00,6.810000,-0.037620,
2025-11-12T17:07:43.185170+00:00,6.815000,-0.040280,
2025-11-12T17:07:43.190170+00:00,6.820000,-0.041420,
2025-11-12T17:07:43.195170+00:00,6.825000,-0.038000,
2025-11-12T17:07:43.200170+00:00,6.830000,-0.034960,
2025-11-12T17:07:43.205170+00:00,6.835000,-0.034580,
2025-11-12T17:07:43.210170+00:00,6.840000,-0.037240,
2025-11-12T17:07:43.215170+00:00,6.845000,-0.038380,
2025-11-12T17:07:43.220170+00:00,6.850000,-0.033820,
2025-11-12T17:07:43.225170+00:00,6.855000,-0.030780,
2025-11-12T17:07:43.230170+00:00,6.860000,-0.030400,
2025-11-12T17:07:43.235170+00:00,6.865000,-0.033060,
2025-11-12T17:07:43.240170+00:00,6.870000,-0.034960,
2025-11-12T17:07:43.245170+00:00,6.875000,-0.034960,
2025-11-12T17:07:43.250170+00:00,6.880000,-0.033060,
2025-11-12T17:07:43.255170+00:00,6.885000,-0.033820,
2025-11-12T17:07:43.260170+00:00,6.890000,-0.036480,
2025-11-12T17:07:43.265170+00:00,6.895000,-0.037240,
2025-11-12T17:07:43.270170+00:00,6.900000,-0.035340,
2025-11-12T17:07:43.275170+00:00,6.905000,-0.031160,
2025-11-12T17:07:43.280170+00:00,6.910000,-0.030780,
2025-11-12T17:07:43.285170+00:00,6.915000,-0.033440,
2025-11-12T17:07:43.290170+00:00,6.920000,-0.036860,
2025-11-12T17:07:43.295170+00:00,6.925000,-0.038380,
2025-11-12T17:07:43.300170+00:00,6.930000,-0.037240,
2025-11-12T17:07:43.305170+00:00,6.935000,-0.032680,
2025-11-12T17:07:43.310170+00:00,6.940000,-0.029640,
2025-11-12T17:07:43.315170+00:00,6.945000,-0.029260,
2025-11-12T17:07:43.320170+00:00,6.950000,-0.032300,
2025-11-12T17:07:43.325170+00:00,6.955000,-0.035720,
2025-11-12T17:07:43.330170+00:00,6.960000,-0.036480,
2025-11-12T17:07:43.335170+00:00,6.965000,-0.034580,
2025-11-12T17:07:43.340170+00:00,6.970000,-0.034580,
2025-11-12T17:07:43.345170+00:00,6.975000,-0.036480,
2025-11-12T17:07:43.350170+00:00,6.980000,-0.038380,
2025-11-12T17:07:43.355170+00:00,6.985000,-0.036860,
2025-11-12T17:07:43.360170+00:00,6.990000,-0.032300,
2025-11-12T17:07:43.365170+00:00,6.995000,-0.024320,
2025-11-12T17:07:43.370170+00:00,7.000000,-0.009880,
2025-11-12T17:07:43.375170+00:00,7.005000,0.006460,
2025-11-12T17:07:43.380170+00:00,7.010000,0.011020,
2025-11-12T17:07:43.385170+00:00,7.015000,-0.000380,
2025-11-12T17:07:43.390170+00:00,7.020000,-0.021280,
2025-11-12T17:07:43.395170+00:00,7.025000,-0.037620,
2025-11-12T17:07:43.400170+00:00,7.030000,-0.038760,
2025-11-12T17:07:43.405170+00:00,7.035000,-0.035340,
2025-11-12T17:07:43.410170+00:00,7.040000,-0.034960,
2025-11-12T17:07:43.415170+00:00,7.045000,-0.039140,
2025-11-12T17:07:43.420170+00:00,7.050000,-0.045220,
2025-11-12T17:07:43.425170+00:00,7.055000,-0.051300,
2025-11-12T17:07:43.430170+00:00,7.060000,-0.053960,
2025-11-12T17:07:43.435170+00:00,7.065000,-0.054720,
2025-11-12T17:07:43.440170+00:00,7.070000,-0.050160,
2025-11-12T17:07:43.445170+00:00,7.075000,-0.041800,
2025-11-12T17:07:43.450170+00:00,7.080000,-0.033440,
2025-11-12T17:07:43.455170+00:00,7.085000,-0.031540,
2025-11-12T17:07:43.460170+00:00,7.090000,-0.029260,
2025-11-12T17:07:43.465170+00:00,7.095000,-0.019760,
2025-11-12T17:07:43.470170+00:00,7.100000,-0.006080,
2025-11-12T17:07:43.475170+00:00,7.105000,0.006840,
2025-11-12T17:07:43.480170+00:00,7.110000,0.044080,
2025-11-12T17:07:43.485170+00:00,7.115000,0.150480,
2025-11-12T17:07:43.490170+00:00,7.120000,0.381900,
2025-11-12T17:07:43.495170+00:00,7.125000,0.719720,
2025-11-12T17:07:43.500170+00:00,7.130000,0.984960,
2025-11-12T17:07:43.505170+00:00,7.135000,0.886920,
2025-11-12T17:07:43.510170+00:00,7.140000,0.319580,
2025-11-12T17:07:43.515170+00:00,7.145000,-0.443080,
2025-11-12T17:07:43.520170+00:00,7.150000,-0.941640,
2025-11-12T17:07:43.525170+00:00,7.155000,-0.960260,
2025-11-12T17:07:43.530170+00:00,7.160000,-0.669560,
2025-11-12T17:07:43.535170+00:00,7.165000,-0.378860,
2025-11-12T17:07:43.540170+00:00,7.170000,-0.215080,
2025-11-12T17:07:43.545170+00:00,7.175000,-0.134900,
2025-11-12T17:07:43.550170+00:00,7.180000,-0.085880,
2025-11-12T17:07:43.555170+00:00,7.185000,-0.060420,
2025-11-12T17:07:43.560170+00:00,7.190000,-0.052440,
2025-11-12T17:07:43.565170+00:00,7.195000,-0.048260,
2025-11-12T17:07:43.570170+00:00,7.200000,-0.042940,
2025-11-12T17:07:43.575170+00:00,7.205000,-0.034580,
2025-11-12T17:07:43.580170+00:00,7.210000,-0.027740,
2025-11-12T17:07:43.585170+00:00,7.215000,-0.020520,
2025-11-12T17:07:43.590170+00:00,7.220000,-0.017860,
2025-11-12T17:07:43.595170+00:00,7.225000,-0.018240,
2025-11-12T17:07:43.600170+00:00,7.230000,-0.017480,
2025-11-12T17:07:43.605170+00:00,7.235000,-0.013680,
2025-11-12T17:07:43.610170+00:00,7.240000,-0.009880,
2025-11-12T17:07:43.615170+00:00,7.245000,-0.009120,
2025-11-12T17:07:43.620170+00:00,7.250000,-0.010640,
2025-11-12T17:07:43.625170+00:00,7.255000,-0.011020,
2025-11-12T17:07:43.630170+00:00,7.260000,-0.011020,
2025-11-12T17:07:43.635170+00:00,7.265000,-0.009120,
2025-11-12T17:07:43.640170+00:00,7.270000,-0.006080,
2025-11-12T17:07:43.645170+00:00,7.275000,-0.000380,
2025-11-12T17:07:43.650170+00:00,7.280000,0.006460,
2025-11-12T17:07:43.655170+00:00,7.285000,0.007600,
2025-11-12T17:07:43.660170+00:00,7.290000,0.006840,
2025-11-12T17:07:43.665170+00:00,7.295000,0.006840,
2025-11-12T17:07:43.670170+00:00,7.300000,0.012160,
2025-11-12T17:07:43.675170+00:00,7.305000,0.018620,
2025-11-12T17:07:43.680170+00:00,7.310000,0.027360,
2025-11-12T17:07:43.685170+00:00,7.315000,0.034580,
2025-11-12T17:07:43.690170+00:00,7.320000,0.041040,
2025-11-12T17:07:43.695170+00:00,7.325000,0.049020,
2025-11-12T17:07:43.700170+00:00,7.330000,0.057760,
2025-11-12T17:07:43.705170+00:00,7.335000,0.065740,
2025-11-12T17:07:43.710170+00:00,7.340000,0.072960,
2025-11-12T17:07:43.715170+00:00,7.345000,0.080180,
2025-11-12T17:07:43.720170+00:00,7.350000,0.087020,
2025-11-12T17:07:43.725170+00:00,7.355000,0.093100,
2025-11-12T17:07:43.730170+00:00,7.360000,0.093480,
2025-11-12T17:07:43.735170+00:00,7.365000,0.087400,
2025-11-12T17:07:43.740170+00:00,7.370000,0.078660,
2025-11-12T17:07:43.745170+00:00,7.375000,0.066880,
2025-11-12T17:07:43.750170+00:00,7.380000,0.052820,
2025-11-12T17:07:43.755170+00:00,7.385000,0.028120,
2025-11-12T17:07:43.760170+00:00,7.390000,-0.011400,
2025-11-12T17:07:43.765170+00:00,7.395000,-0.065740,
2025-11-12T17:07:43.770170+00:00,7.400000,-0.126540,
2025-11-12T17:07:43.775170+00:00,7.405000,-0.186960,
2025-11-12T17:07:43.780170+00:00,7.410000,-0.239400,
2025-11-12T17:07:43.785170+00:00,7.415000,-0.275120,
2025-11-12T17:07:43.790170+00:00,7.420000,-0.294500,
2025-11-12T17:07:43.795170+00:00,7.425000,-0.298300,
2025-11-12T17:07:43.800170+00:00,7.430000,-0.289560,
2025-11-12T17:07:43.805170+00:00,7.435000,-0.272840,
2025-11-12T17:07:43.810170+00:00,7.440000,-0.245480,
2025-11-12T17:07:43.815170+00:00,7.445000,-0.214700,
2025-11-12T17:07:43.820170+00:00,7.450000,-0.184680,
2025-11-12T17:07:43.825170+00:00,7.455000,-0.158080,
2025-11-12T17:07:43.830170+00:00,7.460000,-0.131480,
2025-11-12T17:07:43.835170+00:00,7.465000,-0.107920,
2025-11-12T17:07:43.840170+00:00,7.470000,-0.088540,
2025-11-12T17:07:43.845170+00:00,7.475000,-0.075240,
2025-11-12T17:07:43.850170+00:00,7.480000,-0.064220,
2025-11-12T17:07:43.855170+00:00,7.485000,-0.054720,
2025-11-12T17:07:43.860170+00:00,7.490000,-0.047880,
2025-11-12T17:07:43.865170+00:00,7.495000,-0.045600,
2025-11-12T17:07:43.870170+00:00,7.500000,-0.042940,
2025-11-12T17:07:43.875170+00:00,7.505000,-0.039900,
2025-11-12T17:07:43.880170+00:00,7.510000,-0.036100,
2025-11-12T17:07:43.885170+00:00,7.515000,-0.033060,
2025-11-12T17:07:43.890170+00:00,7.520000,-0.030400,
2025-11-12T17:07:43.895170+00:00,7.525000,-0.029640,
2025-11-12T17:07:43.900170+00:00,7.530000,-0.027740,
2025-11-12T17:07:43.905170+00:00,7.535000,-0.023940,
2025-11-12T17:07:43.910170+00:00,7.540000,-0.021660,
2025-11-12T17:07:43.915170+00:00,7.545000,-0.022420,
2025-11-12T17:07:43.920170+00:00,7.550000,-0.023180,
2025-11-12T17:07:43.925170+00:00,7.555000,-0.022800,
2025-11-12T17:07:43.930170+00:00,7.560000,-0.019380,
2025-11-12T17:07:43.935170+00:00,7.565000,-0.016720,
2025-11-12T17:07:43.940170+00:00,7.570000,-0.016720,
2025-11-12T17:07:43.945170+00:00,7.575000,-0.018240,
2025-11-12T17:07:43.950170+00:00,7.580000,-0.019000,
2025-11-12T17:07:43.955170+00:00,7.585000,-0.018620,
2025-11-12T17:07:43.960170+00:00,7.590000,-0.020520,
2025-11-12T17:07:43.965170+00:00,7.595000,-0.023940,
2025-11-12T17:07:43.970170+00:00,7.600000,-0.026220,
2025-11-12T17:07:43.975170+00:00,7.605000,-0.026980,
2025-11-12T17:07:43.980170+00:00,7.610000,-0.026600,
2025-11-12T17:07:43.985170+00:00,7.615000,-0.027740,
2025-11-12T17:07:43.990170+00:00,7.620000,-0.029260,
2025-11-12T17:07:43.995170+00:00,7.625000,-0.027740,
2025-11-12T17:07:44.000170+00:00,7.630000,-0.025840,
2025-11-12T17:07:44.005170+00:00,7.635000,-0.028880,
2025-11-12T17:07:44.010170+00:00,7.640000,-0.034200,
2025-11-12T17:07:44.015170+00:00,7.645000,-0.038000,
2025-11-12T17:07:44.020170+00:00,7.650000,-0.035720,
2025-11-12T17:07:44.025170+00:00,7.655000,-0.033440,
2025-11-12T17:07:44.030170+00:00,7.660000,-0.031160,
2025-11-12T17:07:44.035170+00:00,7.665000,-0.031160,
2025-11-12T17:07:44.040170+00:00,7.670000,-0.032300,
2025-11-12T17:07:44.045170+00:00,7.675000,-0.031920,
2025-11-12T17:07:44.050170+00:00,7.680000,-0.032680,
2025-11-12T17:07:44.055170+00:00,7.685000,-0.034580,
2025-11-12T17:07:44.060170+00:00,7.690000,-0.035340,
2025-11-12T17:07:44.065170+00:00,7.695000,-0.035340,
2025-11-12T17:07:44.070170+00:00,7.700000,-0.033060,
2025-11-12T17:07:44.075170+00:00,7.705000,-0.030020,
2025-11-12T17:07:44.080170+00:00,7.710000,-0.028120,
2025-11-12T17:07:44.085170+00:00,7.715000,-0.025840,
2025-11-12T17:07:44.090170+00:00,7.720000,-0.025840,
2025-11-12T17:07:44.095170+00:00,7.725000,-0.026220,
2025-11-12T17:07:44.100170+00:00,7.730000,-0.026980,
2025-11-12T17:07:44.105170+00:00,7.735000,-0.026220,
2025-11-12T17:07:44.110170+00:00,7.740000,-0.027360,
2025-11-12T17:07:44.115170+00:00,7.745000,-0.028880,
2025-11-12T17:07:44.120170+00:00,7.750000,-0.030400,
2025-11-12T17:07:44.125170+00:00,7.755000,-0.030780,
2025-11-12T17:07:44.130170+00:00,7.760000,-0.028500,
2025-11-12T17:07:44.135170+00:00,7.765000,-0.026220,
2025-11-12T17:07:44.140170+00:00,7.770000,-0.026220,
2025-11-12T17:07:44.145170+00:00,7.775000,-0.027360,
2025-11-12T17:07:44.150170+00:00,7.780000,-0.029260,
2025-11-12T17:07:44.155170+00:00,7.785000,-0.029260,
2025-11-12T17:07:44.160170+00:00,7.790000,-0.027360,
2025-11-12T17:07:44.165170+00:00,7.795000,-0.025840,
2025-11-12T17:07:44.170170+00:00,7.800000,-0.025080,
2025-11-12T17:07:44.175170+00:00,7.805000,-0.023940,
2025-11-12T17:07:44.180170+00:00,7.810000,-0.026600,
2025-11-12T17:07:44.185170+00:00,7.815000,-0.031160,
2025-11-12T17:07:44.190170+00:00,7.820000,-0.035340,
2025-11-12T17:07:44.195170+00:00,7.825000,-0.034200,
2025-11-12T17:07:44.200170+00:00,7.830000,-0.026220,
2025-11-12T17:07:44.205170+00:00,7.835000,-0.008740,
2025-11-12T17:07:44.210170+00:00,7.840000,0.008360,
2025-11-12T17:07:44.215170+00:00,7.845000,0.015960,
2025-11-12T17:07:44.220170+00:00,7.850000,0.006460,
2025-11-12T17:07:44.225170+00:00,7.855000,-0.012160,
2025-11-12T17:07:44.230170+00:00,7.860000,-0.026600,
2025-11-12T17:07:44.235170+00:00,7.865000,-0.029260,
2025-11-12T17:07:44.240170+00:00,7.870000,-0.028500,
2025-11-12T17:07:44.245170+00:00,7.875000,-0.029260,
2025-11-12T17:07:44.250170+00:00,7.880000,-0.036860,
2025-11-12T17:07:44.255170+00:00,7.885000,-0.042180,
2025-11-12T17:07:44.260170+00:00,7.890000,-0.045600,
2025-11-12T17:07:44.265170+00:00,7.895000,-0.049400,
2025-11-12T17:07:44.270170+00:00,7.900000,-0.050540,
2025-11-12T17:07:44.275170+00:00,7.905000,-0.047500,
2025-11-12T17:07:44.280170+00:00,7.910000,-0.041420,
2025-11-12T17:07:44.285170+00:00,7.915000,-0.034580,
2025-11-12T17:07:44.290170+00:00,7.920000,-0.034580,
2025-11-12T17:07:44.295170+00:00,7.925000,-0.037620,
2025-11-12T17:07:44.300170+00:00,7.930000,-0.032300,
2025-11-12T17:07:44.305170+00:00,7.935000,-0.019000,
2025-11-12T17:07:44.310170+00:00,7.940000,-0.007980,
2025-11-12T17:07:44.315170+00:00,7.945000,0.012540,
2025-11-12T17:07:44.320170+00:00,7.950000,0.081320,
2025-11-12T17:07:44.325170+00:00,7.955000,0.257640,
2025-11-12T17:07:44.330170+00:00,7.960000,0.576080,
2025-11-12T17:07:44.335170+00:00,7.965000,0.941260,
2025-11-12T17:07:44.340170+00:00,7.970000,1.072740,
2025-11-12T17:07:44.345170+00:00,7.975000,0.711360,
2025-11-12T17:07:44.350170+00:00,7.980000,-0.051300,
2025-11-12T17:07:44.355170+00:00,7.985000,-0.766460,
2025-11-12T17:07:44.360170+00:00,7.990000,-1.028280,
2025-11-12T17:07:44.365170+00:00,7.995000,-0.841320,
2025-11-12T17:07:44.370170+00:00,8.000000,-0.515660,
2025-11-12T17:07:44.375170+00:00,8.005000,-0.296400,
2025-11-12T17:07:44.380170+00:00,8.010000,-0.196080,
2025-11-12T17:07:44.385170+00:00,8.015000,-0.139840,
2025-11-12T17:07:44.390170+00:00,8.020000,-0.102600,
2025-11-12T17:07:44.395170+00:00,8.025000,-0.082080,
2025-11-12T17:07:44.400170+00:00,8.030000,-0.069160,
2025-11-12T17:07:44.405170+00:00,8.035000,-0.056240,
2025-11-12T17:07:44.410170+00:00,8.040000,-0.047500,
2025-11-12T17:07:44.415170+00:00,8.045000,-0.041420,
2025-11-12T17:07:44.420170+00:00,8.050000,-0.036100,
2025-11-12T17:07:44.425170+00:00,8.055000,-0.030020,
2025-11-12T17:07:44.430170+00:00,8.060000,-0.023180,
2025-11-12T17:07:44.435170+00:00,8.065000,-0.018620,
2025-11-12T17:07:44.440170+00:00,8.070000,-0.014820,
2025-11-12T17:07:44.445170+00:00,8.075000,-0.014060,
2025-11-12T17:07:44.450170+00:00,8.080000,-0.013680,
2025-11-12T17:07:44.455170+00:00,8.085000,-0.012160,
2025-11-12T17:07:44.460170+00:00,8.090000,-0.010260,
2025-11-12T17:07:44.465170+00:00,8.095000,-0.008360,
2025-11-12T17:07:44.470170+00:00,8.100000,-0.007600,
2025-11-12T17:07:44.475170+00:00,8.105000,-0.007600,
2025-11-12T17:07:44.480170+00:00,8.110000,-0.004180,
2025-11-12T17:07:44.485170+00:00,8.115000,-0.001140,
2025-11-12T17:07:44.490170+00:00,8.120000,0.002660,
2025-11-12T17:07:44.495170+00:00,8.125000,0.007600,
2025-11-12T17:07:44.500170+00:00,8.130000,0.010260,
2025-11-12T17:07:44.505170+00:00,8.135000,0.013680,
2025-11-12T17:07:44.510170+00:00,8.140000,0.017860,
2025-11-12T17:07:44.515170+00:00,8.145000,0.021280,
2025-11-12T17:07:44.520170+00:00,8.150000,0.027740,
2025-11-12T17:07:44.525170+00:00,8.155000,0.033440,
2025-11-12T17:07:44.530170+00:00,8.160000,0.040660,
2025-11-12T17:07:44.535170+00:00,8.165000,0.049780,
2025-11-12T17:07:44.540170+00:00,8.170000,0.058900,
2025-11-12T17:07:44.545170+00:00,8.175000,0.066880,
2025-11-12T17:07:44.550170+00:00,8.180000,0.076380,
2025-11-12T17:07:44.555170+00:00,8.185000,0.080560,
2025-11-12T17:07:44.560170+00:00,8.190000,0.084740,
2025-11-12T17:07:44.565170+00:00,8.195000,0.085120,
2025-11-12T17:07:44.570170+00:00,8.200000,0.084740,
2025-11-12T17:07:44.575170+00:00,8.205000,0.081700,
2025-11-12T17:07:44.580170+00:00,8.210000,0.074480,
2025-11-12T17:07:44.585170+00:00,8.215000,0.063840,
2025-11-12T17:07:44.590170+00:00,8.220000,0.045980,
2025-11-12T17:07:44.595170+00:00,8.225000,0.019000,
2025-11-12T17:07:44.600170+00:00,8.230000,-0.022420,
2025-11-12T17:07:44.605170+00:00,8.235000,-0.079420,
2025-11-12T17:07:44.610170+00:00,8.240000,-0.142500,
2025-11-12T17:07:44.615170+00:00,8.245000,-0.203680,
2025-11-12T17:07:44.620170+00:00,8.250000,-0.252320,
2025-11-12T17:07:44.625170+00:00,8.255000,-0.283480,
2025-11-12T17:07:44.630170+00:00,8.260000,-0.296400,
2025-11-12T17:07:44.635170+00:00,8.265000,-0.293360,
2025-11-12T17:07:44.640170+00:00,8.270000,-0.277400,
2025-11-12T17:07:44.645170+00:00,8.275000,-0.253840,
2025-11-12T17:07:44.650170+00:00,8.280000,-0.229140,
2025-11-12T17:07:44.655170+00:00,8.285000,-0.202160,
2025-11-12T17:07:44.660170+00:00,8.290000,-0.174040,
2025-11-12T17:07:44.665170+00:00,8.295000,-0.145540,
2025-11-12T17:07:44.670170+00:00,8.300000,-0.118560,
2025-11-12T17:07:44.675170+00:00,8.305000,-0.098040,
2025-11-12T17:07:44.680170+00:00,8.310000,-0.081320,
2025-11-12T17:07:44.685170+00:00,8.315000,-0.068400,
2025-11-12T17:07:44.690170+00:00,8.320000,-0.057380,
2025-11-12T17:07:44.695170+00:00,8.325000,-0.049400,
2025-11-12T17:07:44.700170+00:00,8.330000,-0.045220,
2025-11-12T17:07:44.705170+00:00,8.335000,-0.041420,
2025-11-12T17:07:44.710170+00:00,8.340000,-0.038380,
2025-11-12T17:07:44.715170+00:00,8.345000,-0.033060,
2025-11-12T17:07:44.720170+00:00,8.350000,-0.029260,
2025-11-12T17:07:44.725170+00:00,8.355000,-0.028120,
2025-11-12T17:07:44.730170+00:00,8.360000,-0.026600,
2025-11-12T17:07:44.735170+00:00,8.365000,-0.026220,
2025-11-12T17:07:44.740170+00:00,8.370000,-0.026220,
2025-11-12T17:07:44.745170+00:00,8.375000,-0.027740,
2025-11-12T17:07:44.750170+00:00,8.380000,-0.027360,
2025-11-12T17:07:44.755170+00:00,8.385000,-0.025080,
2025-11-12T17:07:44.760170+00:00,8.390000,-0.022040,
2025-11-12T17:07:44.765170+00:00,8.395000,-0.020900,
2025-11-12T17:07:44.770170+00:00,8.400000,-0.022040,
2025-11-12T17:07:44.775170+00:00,8.405000,-0.023940,
2025-11-12T17:07:44.780170+00:00,8.410000,-0.023560,
2025-11-12T17:07:44.785170+00:00,8.415000,-0.022800,
2025-11-12T17:07:44.790170+00:00,8.420000,-0.024320,
2025-11-12T17:07:44.795170+00:00,8.425000,-0.027740,
2025-11-12T17:07:44.800170+00:00,8.430000,-0.030400,
2025-11-12T17:07:44.805170+00:00,8.435000,-0.030020,
2025-11-12T17:07:44.810170+00:00,8.440000,-0.027360,
2025-11-12T17:07:44.815170+00:00,8.445000,-0.026980,
2025-11-12T17:07:44.820170+00:00,8.450000,-0.028120,
2025-11-12T17:07:44.825170+00:00,8.455000,-0.030780,
2025-11-12T17:07:44.830170+00:00,8.460000,-0.031540,
2025-11-12T17:07:44.835170+00:00,8.465000,-0.033060,
2025-11-12T17:07:44.840170+00:00,8.470000,-0.033440,
2025-11-12T17:07:44.845170+00:00,8.475000,-0.033060,
2025-11-12T17:07:44.850170+00:00,8.480000,-0.031920,
2025-11-12T17:07:44.855170+00:00,8.485000,-0.031160,
2025-11-12T17:07:44.860170+00:00,8.490000,-0.031160,
2025-11-12T17:07:44.865170+00:00,8.495000,-0.032680,
2025-11-12T17:07:44.870170+00:00,8.500000,-0.033060,
2025-11-12T17:07:44.875170+00:00,8.505000,-0.032680,
2025-11-12T17:07:44.880170+00:00,8.510000,-0.033440,
2025-11-12T17:07:44.885170+00:00,8.515000,-0.034200,
2025-11-12T17:07:44.890170+00:00,8.520000,-0.033060,
2025-11-12T17:07:44.895170+00:00,8.525000,-0.031920,
2025-11-12T17:07:44.900170+00:00,8.530000,-0.029640,
2025-11-12T17:07:44.905170+00:00,8.535000,-0.028120,
2025-11-12T17:07:44.910170+00:00,8.540000,-0.027360,
2025-11-12T17:07:44.915170+00:00,8.545000,-0.028500,
2025-11-12T17:07:44.920170+00:00,8.550000,-0.028880,
2025-11-12T17:07:44.925170+00:00,8.555000,-0.029640,
2025-11-12T17:07:44.930170+00:00,8.560000,-0.030020,
2025-11-12T17:07:44.935170+00:00,8.565000,-0.030780,
2025-11-12T17:07:44.940170+00:00,8.570000,-0.030400,
2025-11-12T17:07:44.945170+00:00,8.575000,-0.029640,
2025-11-12T17:07:44.950170+00:00,8.580000,-0.030020,
2025-11-12T17:07:44.955170+00:00,8.585000,-0.031160,
2025-11-12T17:07:44.960170+00:00,8.590000,-0.031160,
2025-11-12T17:07:44.965170+00:00,8.595000,-0.031160,
2025-11-12T17:07:44.970170+00:00,8.600000,-0.029260,
2025-11-12T17:07:44.975170+00:00,8.605000,-0.028120,
2025-11-12T17:07:44.980170+00:00,8.610000,-0.028500,
2025-11-12T17:07:44.985170+00:00,8.615000,-0.029640,
2025-11-12T17:07:44.990170+00:00,8.620000,-0.028880,
2025-11-12T17:07:44.995170+00:00,8.625000,-0.028120,
2025-11-12T17:07:45.000170+00:00,8.630000,-0.028500,
2025-11-12T17:07:45.005170+00:00,8.635000,-0.030780,
2025-11-12T17:07:45.010170+00:00,8.640000,-0.032300,
2025-11-12T17:07:45.015170+00:00,8.645000,-0.032300,
2025-11-12T17:07:45.020170+00:00,8.650000,-0.031920,
2025-11-12T17:07:45.025170+00:00,8.655000,-0.030400,
2025-11-12T17:07:45.030170+00:00,8.660000,-0.029640,
2025-11-12T17:07:45.035170+00:00,8.665000,-0.029640,
2025-11-12T17:07:45.040170+00:00,8.670000,-0.030020,
2025-11-12T17:07:45.045170+00:00,8.675000,-0.028120,
2025-11-12T17:07:45.050170+00:00,8.680000,-0.026600,
2025-11-12T17:07:45.055170+00:00,8.685000,-0.026220,
2025-11-12T17:07:45.060170+00:00,8.690000,-0.028120,
2025-11-12T17:07:45.065170+00:00,8.695000,-0.031160,
2025-11-12T17:07:45.070170+00:00,8.700000,-0.031540,
2025-11-12T17:07:45.075170+00:00,8.705000,-0.030400,
2025-11-12T17:07:45.080170+00:00,8.710000,-0.027360,
2025-11-12T17:07:45.085170+00:00,8.715000,-0.026220,
2025-11-12T17:07:45.090170+00:00,8.720000,-0.026600,
2025-11-12T17:07:45.095170+00:00,8.725000,-0.030400,
2025-11-12T17:07:45.100170+00:00,8.730000,-0.033060,
2025-11-12T17:07:45.105170+00:00,8.735000,-0.035720,
2025-11-12T17:07:45.110170+00:00,8.740000,-0.035720,
2025-11-12T17:07:45.115170+00:00,8.745000,-0.030400,
2025-11-12T17:07:45.120170+00:00,8.750000,-0.019000,
2025-11-12T17:07:45.125170+00:00,8.755000,-0.003040,
2025-11-12T17:07:45.130170+00:00,8.760000,0.008360,
2025-11-12T17:07:45.135170+00:00,8.765000,0.006840,
2025-11-12T17:07:45.140170+00:00,8.770000,-0.007980,
2025-11-12T17:07:45.145170+00:00,8.775000,-0.024700,
2025-11-12T17:07:45.150170+00:00,8.780000,-0.033440,
2025-11-12T17:07:45.155170+00:00,8.785000,-0.035340,
2025-11-12T17:07:45.160170+00:00,8.790000,-0.034580,
2025-11-12T17:07:45.165170+00:00,8.795000,-0.034580,
2025-11-12T17:07:45.170170+00:00,8.800000,-0.040660,
2025-11-12T17:07:45.175170+00:00,8.805000,-0.047880,
2025-11-12T17:07:45.180170+00:00,8.810000,-0.056240,
2025-11-12T17:07:45.185170+00:00,8.815000,-0.055100,
2025-11-12T17:07:45.190170+00:00,8.820000,-0.048640,
2025-11-12T17:07:45.195170+00:00,8.825000,-0.041420,
2025-11-12T17:07:45.200170+00:00,8.830000,-0.039140,
2025-11-12T17:07:45.205170+00:00,8.835000,-0.042180,
2025-11-12T17:07:45.210170+00:00,8.840000,-0.042940,
2025-11-12T17:07:45.215170+00:00,8.845000,-0.036480,
2025-11-12T17:07:45.220170+00:00,8.850000,-0.021660,
2025-11-12T17:07:45.225170+00:00,8.855000,-0.011020,
2025-11-12T17:07:45.230170+00:00,8.860000,0.003420,
2025-11-12T17:07:45.235170+00:00,8.865000,0.066120,
2025-11-12T17:07:45.240170+00:00,8.870000,0.234460,
2025-11-12T17:07:45.245170+00:00,8.875000,0.546060,
2025-11-12T17:07:45.250170+00:00,8.880000,0.923400,
2025-11-12T17:07:45.255170+00:00,8.885000,1.105420,
2025-11-12T17:07:45.260170+00:00,8.890000,0.813200,
2025-11-12T17:07:45.265170+00:00,8.895000,0.075620,
2025-11-12T17:07:45.270170+00:00,8.900000,-0.689700,
2025-11-12T17:07:45.275170+00:00,8.905000,-1.037400,
2025-11-12T17:07:45.280170+00:00,8.910000,-0.902120,
2025-11-12T17:07:45.285170+00:00,8.915000,-0.571900,
2025-11-12T17:07:45.290170+00:00,8.920000,-0.330600,
2025-11-12T17:07:45.295170+00:00,8.925000,-0.224200,
2025-11-12T17:07:45.300170+00:00,8.930000,-0.169860,
2025-11-12T17:07:45.305170+00:00,8.935000,-0.131480,
2025-11-12T17:07:45.310170+00:00,8.940000,-0.106780,
2025-11-12T17:07:45.315170+00:00,8.945000,-0.090440,
2025-11-12T17:07:45.320170+00:00,8.950000,-0.074100,
2025-11-12T17:07:45.325170+00:00,8.955000,-0.060040,
2025-11-12T17:07:45.330170+00:00,8.960000,-0.050160,
2025-11-12T17:07:45.335170+00:00,8.965000,-0.042560,
2025-11-12T17:07:45.340170+00:00,8.970000,-0.035340,
2025-11-12T17:07:45.345170+00:00,8.975000,-0.030780,
2025-11-12T17:07:45.350170+00:00,8.980000,-0.026220,
2025-11-12T17:07:45.355170+00:00,8.985000,-0.023180,
2025-11-12T17:07:45.360170+00:00,8.990000,-0.020140,
2025-11-12T17:07:45.365170+00:00,8.995000,-0.017480,
2025-11-12T17:07:45.370170+00:00,9.000000,-0.014060,
2025-11-12T17:07:45.375170+00:00,9.005000,-0.011020,
2025-11-12T17:07:45.380170+00:00,9.010000,-0.008360,
2025-11-12T17:07:45.385170+00:00,9.015000,-0.006840,
2025-11-12T17:07:45.390170+00:00,9.020000,-0.006080,
2025-11-12T17:07:45.395170+00:00,9.025000,-0.007600,
2025-11-12T17:07:45.400170+00:00,9.030000,-0.005700,
2025-11-12T17:07:45.405170+00:00,9.035000,-0.001900,
2025-11-12T17:07:45.410170+00:00,9.040000,0.004560,
2025-11-12T17:07:45.415170+00:00,9.045000,0.009120,
2025-11-12T17:07:45.420170+00:00,9.050000,0.013680,
2025-11-12T17:07:45.425170+00:00,9.055000,0.015200,
2025-11-12T17:07:45.430170+00:00,9.060000,0.017860,
2025-11-12T17:07:45.435170+00:00,9.065000,0.023940,
2025-11-12T17:07:45.440170+00:00,9.070000,0.031920,
2025-11-12T17:07:45.445170+00:00,9.075000,0.039900,
2025-11-12T17:07:45.450170+00:00,9.080000,0.045600,
2025-11-12T17:07:45.455170+00:00,9.085000,0.052820,
2025-11-12T17:07:45.460170+00:00,9.090000,0.060040,
2025-11-12T17:07:45.465170+00:00,9.095000,0.069160,
2025-11-12T17:07:45.470170+00:00,9.100000,0.076760,
2025-11-12T17:07:45.475170+00:00,9.105000,0.081700,
2025-11-12T17:07:45.480170+00:00,9.110000,0.082840,
2025-11-12T17:07:45.485170+00:00,9.115000,0.081700,
2025-11-12T17:07:45.490170+00:00,9.120000,0.078660,
2025-11-12T17:07:45.495170+00:00,9.125000,0.073340,
2025-11-12T17:07:45.500170+00:00,9.130000,0.063840,
2025-11-12T17:07:45.505170+00:00,9.135000,0.051300,
2025-11-12T17:07:45.510170+00:00,9.140000,0.029640,
2025-11-12T17:07:45.515170+00:00,9.145000,0.000380,
2025-11-12T17:07:45.520170+00:00,9.150000,-0.043320,
2025-11-12T17:07:45.525170+00:00,9.155000,-0.099180,
2025-11-12T17:07:45.530170+00:00,9.160000,-0.161500,
2025-11-12T17:07:45.535170+00:00,9.165000,-0.217360,
2025-11-12T17:07:45.540170+00:00,9.170000,-0.260680,
2025-11-12T17:07:45.545170+00:00,9.175000,-0.287280,
2025-11-12T17:07:45.550170+00:00,9.180000,-0.297540,
2025-11-12T17:07:45.555170+00:00,9.185000,-0.292600,
2025-11-12T17:07:45.560170+00:00,9.190000,-0.277020,
2025-11-12T17:07:45.565170+00:00,9.195000,-0.254600,
2025-11-12T17:07:45.570170+00:00,9.200000,-0.226860,
2025-11-12T17:07:45.575170+00:00,9.205000,-0.198740,
2025-11-12T17:07:45.580170+00:00,9.210000,-0.170240,
2025-11-12T17:07:45.585170+00:00,9.215000,-0.143640,
2025-11-12T17:07:45.590170+00:00,9.220000,-0.119320,
2025-11-12T17:07:45.595170+00:00,9.225000,-0.098040,
2025-11-12T17:07:45.600170+00:00,9.230000,-0.082460,
2025-11-12T17:07:45.605170+00:00,9.235000,-0.070300,
2025-11-12T17:07:45.610170+00:00,9.240000,-0.060420,
2025-11-12T17:07:45.615170+00:00,9.245000,-0.052820,
2025-11-12T17:07:45.620170+00:00,9.250000,-0.045600,
2025-11-12T17:07:45.625170+00:00,9.255000,-0.040660,
2025-11-12T17:07:45.630170+00:00,9.260000,-0.036100,
2025-11-12T17:07:45.635170+00:00,9.265000,-0.032680,
2025-11-12T17:07:45.640170+00:00,9.270000,-0.027740,
2025-11-12T17:07:45.645170+00:00,9.275000,-0.026220,
2025-11-12T17:07:45.650170+00:00,9.280000,-0.025840,
2025-11-12T17:07:45.655170+00:00,9.285000,-0.027360,
2025-11-12T17:07:45.660170+00:00,9.290000,-0.030400,
2025-11-12T17:07:45.665170+00:00,9.295000,-0.031540,
2025-11-12T17:07:45.670170+00:00,9.300000,-0.028500,
2025-11-12T17:07:45.675170+00:00,9.305000,-0.024320,
2025-11-12T17:07:45.680170+00:00,9.310000,-0.023560,
2025-11-12T17:07:45.685170+00:00,9.315000,-0.026220,
2025-11-12T17:07:45.690170+00:00,9.320000,-0.028120,
2025-11-12T17:07:45.695170+00:00,9.325000,-0.028500,
2025-11-12T17:07:45.700170+00:00,9.330000,-0.026600,
2025-11-12T17:07:45.705170+00:00,9.335000,-0.026600,
2025-11-12T17:07:45.710170+00:00,9.340000,-0.027360,
2025-11-12T17:07:45.715170+00:00,9.345000,-0.028880,
2025-11-12T17:07:45.720170+00:00,9.350000,-0.030020,
2025-11-12T17:07:45.725170+00:00,9.355000,-0.031160,
2025-11-12T17:07:45.730170+00:00,9.360000,-0.031160,
2025-11-12T17:07:45.735170+00:00,9.365000,-0.031540,
2025-11-12T17:07:45.740170+00:00,9.370000,-0.031160,
2025-11-12T17:07:45.745170+00:00,9.375000,-0.031160,
2025-11-12T17:07:45.750170+00:00,9.380000,-0.033060,
2025-11-12T17:07:45.755170+00:00,9.385000,-0.032300,
2025-11-12T17:07:45.760170+00:00,9.390000,-0.032680,
2025-11-12T17:07:45.765170+00:00,9.395000,-0.030400,
2025-11-12T17:07:45.770170+00:00,9.400000,-0.028880,
2025-11-12T17:07:45.775170+00:00,9.405000,-0.027740,
2025-11-12T17:07:45.780170+00:00,9.410000,-0.029260,
2025-11-12T17:07:45.785170+00:00,9.415000,-0.031540,
2025-11-12T17:07:45.790170+00:00,9.420000,-0.031160,
2025-11-12T17:07:45.795170+00:00,9.425000,-0.031920,
2025-11-12T17:07:45.800170+00:00,9.430000,-0.032300,
2025-11-12T17:07:45.805170+00:00,9.435000,-0.032680,
2025-11-12T17:07:45.810170+00:00,9.440000,-0.033440,
2025-11-12T17:07:45.815170+00:00,9.445000,-0.031540,
2025-11-12T17:07:45.820170+00:00,9.450000,-0.027740,
2025-11-12T17:07:45.825170+00:00,9.455000,-0.026980,
2025-11-12T17:07:45.830170+00:00,9.460000,-0.027360,
2025-11-12T17:07:45.835170+00:00,9.465000,-0.028880,
2025-11-12T17:07:45.840170+00:00,9.470000,-0.030020,
2025-11-12T17:07:45.845170+00:00,9.475000,-0.030400,
2025-11-12T17:07:45.850170+00:00,9.480000,-0.030400,
2025-11-12T17:07:45.855170+00:00,9.485000,-0.028120,
2025-11-12T17:07:45.860170+00:00,9.490000,-0.026600,
2025-11-12T17:07:45.865170+00:00,9.495000,-0.025460,
2025-11-12T17:07:45.870170+00:00,9.500000,-0.026600,
2025-11-12T17:07:45.875170+00:00,9.505000,-0.028120,
2025-11-12T17:07:45.880170+00:00,9.510000,-0.029640,
2025-11-12T17:07:45.885170+00:00,9.515000,-0.029260,
2025-11-12T17:07:45.890170+00:00,9.520000,-0.026220,
2025-11-12T17:07:45.895170+00:00,9.525000,-0.024320,
2025-11-12T17:07:45.900170+00:00,9.530000,-0.025460,
2025-11-12T17:07:45.905170+00:00,9.535000,-0.027740,
2025-11-12T17:07:45.910170+00:00,9.540000,-0.028500,
2025-11-12T17:07:45.915170+00:00,9.545000,-0.026220,
2025-11-12T17:07:45.920170+00:00,9.550000,-0.024320,
2025-11-12T17:07:45.925170+00:00,9.555000,-0.028120,
2025-11-12T17:07:45.930170+00:00,9.560000,-0.031920,
2025-11-12T17:07:45.935170+00:00,9.565000,-0.031540,
2025-11-12T17:07:45.940170+00:00,9.570000,-0.028500,
2025-11-12T17:07:45.945170+00:00,9.575000,-0.028120,
2025-11-12T17:07:45.950170+00:00,9.580000,-0.029260,
2025-11-12T17:07:45.955170+00:00,9.585000,-0.031540,
2025-11-12T17:07:45.960170+00:00,9.590000,-0.031540,
2025-11-12T17:07:45.965170+00:00,9.595000,-0.027360,
2025-11-12T17:07:45.970170+00:00,9.600000,-0.024700,
2025-11-12T17:07:45.975170+00:00,9.605000,-0.026600,
2025-11-12T17:07:45.980170+00:00,9.610000,-0.029260,
2025-11-12T17:07:45.985170+00:00,9.615000,-0.029260,
2025-11-12T17:07:45.990170+00:00,9.620000,-0.026220,
2025-11-12T17:07:45.995170+00:00,9.625000,-0.025080,
2025-11-12T17:07:46.000170+00:00,9.630000,-0.026600,
2025-11-12T17:07:46.005170+00:00,9.635000,-0.029640,
2025-11-12T17:07:46.010170+00:00,9.640000,-0.031540,
2025-11-12T17:07:46.015170+00:00,9.645000,-0.029260,
2025-11-12T17:07:46.020170+00:00,9.650000,-0.026220,
2025-11-12T17:07:46.025170+00:00,9.655000,-0.024320,
2025-11-12T17:07:46.030170+00:00,9.660000,-0.025840,
2025-11-12T17:07:46.035170+00:00,9.665000,-0.028880,
2025-11-12T17:07:46.040170+00:00,9.670000,-0.033060,
2025-11-12T17:07:46.045170+00:00,9.675000,-0.035720,
2025-11-12T17:07:46.050170+00:00,9.680000,-0.037240,
2025-11-12T17:07:46.055170+00:00,9.685000,-0.037240,
2025-11-12T17:07:46.060170+00:00,9.690000,-0.032680,
2025-11-12T17:07:46.065170+00:00,9.695000,-0.022800,
2025-11-12T17:07:46.070170+00:00,9.700000,-0.005320,
2025-11-12T17:07:46.075170+00:00,9.705000,0.011780,
2025-11-12T17:07:46.080170+00:00,9.710000,0.013300,
2025-11-12T17:07:46.085170+00:00,9.715000,-0.003800,
2025-11-12T17:07:46.090170+00:00,9.720000,-0.026600,
2025-11-12T17:07:46.095170+00:00,9.725000,-0.038000,
2025-11-12T17:07:46.100170+00:00,9.730000,-0.037240,
2025-11-12T17:07:46.105170+00:00,9.735000,-0.031920,
2025-11-12T17:07:46.110170+00:00,9.740000,-0.031540,
2025-11-12T17:07:46.115170+00:00,9.745000,-0.037240,
2025-11-12T17:07:46.120170+00:00,9.750000,-0.042940,
2025-11-12T17:07:46.125170+00:00,9.755000,-0.050160,
2025-11-12T17:07:46.130170+00:00,9.760000,-0.052440,
2025-11-12T17:07:46.135170+00:00,9.765000,-0.051680,
2025-11-12T17:07:46.140170+00:00,9.770000,-0.046360,
2025-11-12T17:07:46.145170+00:00,9.775000,-0.039900,
2025-11-12T17:07:46.150170+00:00,9.780000,-0.036860,
2025-11-12T17:07:46.155170+00:00,9.785000,-0.036860,
2025-11-12T17:07:46.160170+00:00,9.790000,-0.034580,
2025-11-12T17:07:46.165170+00:00,9.795000,-0.025460,
2025-11-12T17:07:46.170170+00:00,9.800000,-0.013300,
2025-11-12T17:07:46.175170+00:00,9.805000,-0.001900,
2025-11-12T17:07:46.180170+00:00,9.810000,0.035340,
2025-11-12T17:07:46.185170+00:00,9.815000,0.147060,
2025-11-12T17:07:46.190170+00:00,9.820000,0.383800,
2025-11-12T17:07:46.195170+00:00,9.825000,0.742900,
2025-11-12T17:07:46.200170+00:00,9.830000,1.045380,
2025-11-12T17:07:46.205170+00:00,9.835000,0.984960,
2025-11-12T17:07:46.210170+00:00,9.840000,0.417620,
2025-11-12T17:07:46.215170+00:00,9.845000,-0.385700,
2025-11-12T17:07:46.220170+00:00,9.850000,-0.938600,
2025-11-12T17:07:46.225170+00:00,9.855000,-0.986480,
2025-11-12T17:07:46.230170+00:00,9.860000,-0.700340,
2025-11-12T17:07:46.235170+00:00,9.865000,-0.407360,
2025-11-12T17:07:46.240170+00:00,9.870000,-0.250800,
2025-11-12T17:07:46.245170+00:00,9.875000,-0.179360,
2025-11-12T17:07:46.250170+00:00,9.880000,-0.130340,
2025-11-12T17:07:46.255170+00:00,9.885000,-0.099940,
2025-11-12T17:07:46.260170+00:00,9.890000,-0.083980,
2025-11-12T17:07:46.265170+00:00,9.895000,-0.068780,
2025-11-12T17:07:46.270170+00:00,9.900000,-0.054340,
2025-11-12T17:07:46.275170+00:00,9.905000,-0.043320,
2025-11-12T17:07:46.280170+00:00,9.910000,-0.039520,
2025-11-12T17:07:46.285170+00:00,9.915000,-0.035720,
2025-11-12T17:07:46.290170+00:00,9.920000,-0.030020,
2025-11-12T17:07:46.295170+00:00,9.925000,-0.021660,
2025-11-12T17:07:46.300170+00:00,9.930000,-0.015580,
2025-11-12T17:07:46.305170+00:00,9.935000,-0.013300,
2025-11-12T17:07:46.310170+00:00,9.940000,-0.014060,
2025-11-12T17:07:46.315170+00:00,9.945000,-0.011780,
2025-11-12T17:07:46.320170+00:00,9.950000,-0.010260,
2025-11-12T17:07:46.325170+00:00,9.955000,-0.009500,
2025-11-12T17:07:46.330170+00:00,9.960000,-0.009120,
2025-11-12T17:07:46.335170+00:00,9.965000,-0.007600,
2025-11-12T17:07:46.340170+00:00,9.970000,-0.004940,
2025-11-12T17:07:46.345170+00:00,9.975000,-0.000760,
2025-11-12T17:07:46.350170+00:00,9.980000,-0.001140,
2025-11-12T17:07:46.355170+00:00,9.985000,0.000000,
2025-11-12T17:07:46.360170+00:00,9.990000,0.002660,
2025-11-12T17:07:46.365170+00:00,9.995000,0.006080,
2025-11-12T17:07:46.370170+00:00,10.000000,0.010260,
2025-11-12T17:07:46.375170+00:00,10.005000,0.018240,
2025-11-12T17:07:46.380170+00:00,10.010000,0.027740,
2025-11-12T17:07:46.385170+00:00,10.015000,0.036480,
2025-11-12T17:07:46.390170+00:00,10.020000,0.041040,
2025-11-12T17:07:46.395170+00:00,10.025000,0.043700,
2025-11-12T17:07:46.400170+00:00,10.030000,0.048640,
2025-11-12T17:07:46.405170+00:00,10.035000,0.057000,
2025-11-12T17:07:46.410170+00:00,10.040000,0.066500,
2025-11-12T17:07:46.415170+00:00,10.045000,0.076000,
2025-11-12T17:07:46.420170+00:00,10.050000,0.081700,
2025-11-12T17:07:46.425170+00:00,10.055000,0.085120,
2025-11-12T17:07:46.430170+00:00,10.060000,0.088920,
2025-11-12T17:07:46.435170+00:00,10.065000,0.089680,
2025-11-12T17:07:46.440170+00:00,10.070000,0.084360,
2025-11-12T17:07:46.445170+00:00,10.075000,0.074860,
2025-11-12T17:07:46.450170+00:00,10.080000,0.061560,
2025-11-12T17:07:46.455170+00:00,10.085000,0.045600,
2025-11-12T17:07:46.460170+00:00,10.090000,0.022800,
2025-11-12T17:07:46.465170+00:00,10.095000,-0.012160,
2025-11-12T17:07:46.470170+00:00,10.100000,-0.062700,
2025-11-12T17:07:46.475170+00:00,10.105000,-0.125780,
2025-11-12T17:07:46.480170+00:00,10.110000,-0.188480,
2025-11-12T17:07:46.485170+00:00,10.115000,-0.241680,
2025-11-12T17:07:46.490170+00:00,10.120000,-0.274740,
2025-11-12T17:07:46.495170+00:00,10.125000,-0.288800,
2025-11-12T17:07:46.500170+00:00,10.130000,-0.289940,
2025-11-12T17:07:46.505170+00:00,10.135000,-0.281580,
2025-11-12T17:07:46.510170+00:00,10.140000,-0.264480,
2025-11-12T17:07:46.515170+00:00,10.145000,-0.240920,
2025-11-12T17:07:46.520170+00:00,10.150000,-0.213180,
2025-11-12T17:07:46.525170+00:00,10.155000,-0.185820,
2025-11-12T17:07:46.530170+00:00,10.160000,-0.156940,
2025-11-12T17:07:46.535170+00:00,10.165000,-0.129580,
2025-11-12T17:07:46.540170+00:00,10.170000,-0.105260,
2025-11-12T17:07:46.545170+00:00,10.175000,-0.088540,
2025-11-12T17:07:46.550170+00:00,10.180000,-0.077140,
2025-11-12T17:07:46.555170+00:00,10.185000,-0.065360,
2025-11-12T17:07:46.560170+00:00,10.190000,-0.055860,
2025-11-12T17:07:46.565170+00:00,10.195000,-0.047880,
2025-11-12T17:07:46.570170+00:00,10.200000,-0.044080,
2025-11-12T17:07:46.575170+00:00,10.205000,-0.041420,
2025-11-12T17:07:46.580170+00:00,10.210000,-0.038760,
2025-11-12T17:07:46.585170+00:00,10.215000,-0.033440,
2025-11-12T17:07:46.590170+00:00,10.220000,-0.029640,
2025-11-12T17:07:46.595170+00:00,10.225000,-0.028500,
2025-11-12T17:07:46.600170+00:00,10.230000,-0.025460,
2025-11-12T17:07:46.605170+00:00,10.235000,-0.021660,
2025-11-12T17:07:46.610170+00:00,10.240000,-0.019760,
2025-11-12T17:07:46.615170+00:00,10.245000,-0.019760,
2025-11-12T17:07:46.620170+00:00,10.250000,-0.022040,
2025-11-12T17:07:46.625170+00:00,10.255000,-0.022420,
2025-11-12T17:07:46.630170+00:00,10.260000,-0.021280,
2025-11-12T17:07:46.635170+00:00,10.265000,-0.022800,
2025-11-12T17:07:46.640170+00:00,10.270000,-0.025460,
2025-11-12T17:07:46.645170+00:00,10.275000,-0.026220,
2025-11-12T17:07:46.650170+00:00,10.280000,-0.022420,
2025-11-12T17:07:46.655170+00:00,10.285000,-0.019760,
2025-11-12T17:07:46.660170+00:00,10.290000,-0.021280,
2025-11-12T17:07:46.665170+00:00,10.295000,-0.027740,
2025-11-12T17:07:46.670170+00:00,10.300000,-0.031160,
2025-11-12T17:07:46.675170+00:00,10.305000,-0.032300,
2025-11-12T17:07:46.680170+00:00,10.310000,-0.030400,
2025-11-12T17:07:46.685170+00:00,10.315000,-0.029260,
2025-11-12T17:07:46.690170+00:00,10.320000,-0.028500,
2025-11-12T17:07:46.695170+00:00,10.325000,-0.028880,
2025-11-12T17:07:46.700170+00:00,10.330000,-0.028500,
2025-11-12T17:07:46.705170+00:00,10.335000,-0.028880,
2025-11-12T17:07:46.710170+00:00,10.340000,-0.028500,
2025-11-12T17:07:46.715170+00:00,10.345000,-0.028120,
2025-11-12T17:07:46.720170+00:00,10.350000,-0.027360,
2025-11-12T17:07:46.725170+00:00,10.355000,-0.027360,
2025-11-12T17:07:46.730170+00:00,10.360000,-0.028880,
2025-11-12T17:07:46.735170+00:00,10.365000,-0.030780,
2025-11-12T17:07:46.740170+00:00,10.370000,-0.033440,
2025-11-12T17:07:46.745170+00:00,10.375000,-0.033060,
2025-11-12T17:07:46.750170+00:00,10.380000,-0.031540,
2025-11-12T17:07:46.755170+00:00,10.385000,-0.030400,
2025-11-12T17:07:46.760170+00:00,10.390000,-0.028880,
2025-11-12T17:07:46.765170+00:00,10.395000,-0.026600,
2025-11-12T17:07:46.770170+00:00,10.400000,-0.026220,
2025-11-12T17:07:46.775170+00:00,10.405000,-0.026220,
2025-11-12T17:07:46.780170+00:00,10.410000,-0.026980,
2025-11-12T17:07:46.785170+00:00,10.415000,-0.027360,
2025-11-12T17:07:46.790170+00:00,10.420000,-0.027360,
2025-11-12T17:07:46.795170+00:00,10.425000,-0.027740,
2025-11-12T17:07:46.800170+00:00,10.430000,-0.028880,
2025-11-12T17:07:46.805170+00:00,10.435000,-0.028120,
2025-11-12T17:07:46.810170+00:00,10.440000,-0.027360,
2025-11-12T17:07:46.815170+00:00,10.445000,-0.028500,
2025-11-12T17:07:46.820170+00:00,10.450000,-0.028120,
2025-11-12T17:07:46.825170+00:00,10.455000,-0.026600,
2025-11-12T17:07:46.830170+00:00,10.460000,-0.026600,
2025-11-12T17:07:46.835170+00:00,10.465000,-0.028500,
2025-11-12T17:07:46.840170+00:00,10.470000,-0.029260,
2025-11-12T17:07:46.845170+00:00,10.475000,-0.026980,
2025-11-12T17:07:46.850170+00:00,10.480000,-0.024320,
2025-11-12T17:07:46.855170+00:00,10.485000,-0.025460,
2025-11-12T17:07:46.860170+00:00,10.490000,-0.028880,
2025-11-12T17:07:46.865170+00:00,10.495000,-0.031540,
2025-11-12T17:07:46.870170+00:00,10.500000,-0.030020,
2025-11-12T17:07:46.875170+00:00,10.505000,-0.026600,
2025-11-12T17:07:46.880170+00:00,10.510000,-0.025080,
2025-11-12T17:07:46.885170+00:00,10.515000,-0.026220,
2025-11-12T17:07:46.890170+00:00,10.520000,-0.026980,
2025-11-12T17:07:46.895170+00:00,10.525000,-0.023180,
2025-11-12T17:07:46.900170+00:00,10.530000,-0.022040,
2025-11-12T17:07:46.905170+00:00,10.535000,-0.025080,
2025-11-12T17:07:46.910170+00:00,10.540000,-0.030400,
2025-11-12T17:07:46.915170+00:00,10.545000,-0.034960,
2025-11-12T17:07:46.920170+00:00,10.550000,-0.034200,
2025-11-12T17:07:46.925170+00:00,10.555000,-0.028880,
2025-11-12T17:07:46.930170+00:00,10.560000,-0.024700,
2025-11-12T17:07:46.935170+00:00,10.565000,-0.025080,
2025-11-12T17:07:46.940170+00:00,10.570000,-0.030780,
2025-11-12T17:07:46.945170+00:00,10.575000,-0.037620,
2025-11-12T17:07:46.950170+00:00,10.580000,-0.039900,
2025-11-12T17:07:46.955170+00:00,10.585000,-0.033440,
2025-11-12T17:07:46.960170+00:00,10.590000,-0.022800,
2025-11-12T17:07:46.965170+00:00,10.595000,-0.008360,
2025-11-12T17:07:46.970170+00:00,10.600000,0.005320,
2025-11-12T17:07:46.975170+00:00,10.605000,0.011400,
2025-11-12T17:07:46.980170+00:00,10.610000,0.003420,
2025-11-12T17:07:46.985170+00:00,10.615000,-0.016340,
2025-11-12T17:07:46.990170+00:00,10.620000,-0.032680,
2025-11-12T17:07:46.995170+00:00,10.625000,-0.036860,
2025-11-12T17:07:47.000170+00:00,10.630000,-0.034580,
2025-11-12T17:07:47.005170+00:00,10.635000,-0.033060,
2025-11-12T17:07:47.010170+00:00,10.640000,-0.039140,
2025-11-12T17:07:47.015170+00:00,10.645000,-0.045220,
2025-11-12T17:07:47.020170+00:00,10.650000,-0.051300,
2025-11-12T17:07:47.025170+00:00,10.655000,-0.053580,
2025-11-12T17:07:47.030170+00:00,10.660000,-0.052820,
2025-11-12T17:07:47.035170+00:00,10.665000,-0.047500,
2025-11-12T17:07:47.040170+00:00,10.670000,-0.039900,
2025-11-12T17:07:47.045170+00:00,10.675000,-0.034580,
2025-11-12T17:07:47.050170+00:00,10.680000,-0.034580,
2025-11-12T17:07:47.055170+00:00,10.685000,-0.033060,
2025-11-12T17:07:47.060170+00:00,10.690000,-0.025080,
2025-11-12T17:07:47.065170+00:00,10.695000,-0.012540,
2025-11-12T17:07:47.070170+00:00,10.700000,-0.003800,
2025-11-12T17:07:47.075170+00:00,10.705000,0.023560,
2025-11-12T17:07:47.080170+00:00,10.710000,0.115140,
2025-11-12T17:07:47.085170+00:00,10.715000,0.322620,
2025-11-12T17:07:47.090170+00:00,10.720000,0.658920,
2025-11-12T17:07:47.095170+00:00,10.725000,0.983820,
2025-11-12T17:07:47.100170+00:00,10.730000,1.003960,
2025-11-12T17:07:47.105170+00:00,10.735000,0.527060,
2025-11-12T17:07:47.110170+00:00,10.740000,-0.256500,
2025-11-12T17:07:47.115170+00:00,10.745000,-0.875520,
2025-11-12T17:07:47.120170+00:00,10.750000,-1.010040,
2025-11-12T17:07:47.125170+00:00,10.755000,-0.760000,
2025-11-12T17:07:47.130170+00:00,10.760000,-0.448020,
2025-11-12T17:07:47.135170+00:00,10.765000,-0.260680,
2025-11-12T17:07:47.140170+00:00,10.770000,-0.173660,
2025-11-12T17:07:47.145170+00:00,10.775000,-0.118560,
2025-11-12T17:07:47.150170+00:00,10.780000,-0.087020,
2025-11-12T17:07:47.155170+00:00,10.785000,-0.072960,
2025-11-12T17:07:47.160170+00:00,10.790000,-0.063460,
2025-11-12T17:07:47.165170+00:00,10.795000,-0.051680,
2025-11-12T17:07:47.170170+00:00,10.800000,-0.043320,
2025-11-12T17:07:47.175170+00:00,10.805000,-0.037240,
2025-11-12T17:07:47.180170+00:00,10.810000,-0.033060,
2025-11-12T17:07:47.185170+00:00,10.815000,-0.026600,
2025-11-12T17:07:47.190170+00:00,10.820000,-0.021660,
2025-11-12T17:07:47.195170+00:00,10.825000,-0.019000,
2025-11-12T17:07:47.200170+00:00,10.830000,-0.020520,
2025-11-12T17:07:47.205170+00:00,10.835000,-0.018240,
2025-11-12T17:07:47.210170+00:00,10.840000,-0.015200,
2025-11-12T17:07:47.215170+00:00,10.845000,-0.011400,
2025-11-12T17:07:47.220170+00:00,10.850000,-0.011020,
2025-11-12T17:07:47.225170+00:00,10.855000,-0.011020,
2025-11-12T17:07:47.230170+00:00,10.860000,-0.010260,
2025-11-12T17:07:47.235170+00:00,10.865000,-0.006460,
2025-11-12T17:07:47.240170+00:00,10.870000,-0.001520,
2025-11-12T17:07:47.245170+00:00,10.875000,0.002660,
2025-11-12T17:07:47.250170+00:00,10.880000,0.004940,
2025-11-12T17:07:47.255170+00:00,10.885000,0.006460,
2025-11-12T17:07:47.260170+00:00,10.890000,0.009500,
2025-11-12T17:07:47.265170+00:00,10.895000,0.012920,
2025-11-12T17:07:47.270170+00:00,10.900000,0.016340,
2025-11-12T17:07:47.275170+00:00,10.905000,0.021660,
2025-11-12T17:07:47.280170+00:00,10.910000,0.026600,
2025-11-12T17:07:47.285170+00:00,10.915000,0.031160,
2025-11-12T17:07:47.290170+00:00,10.920000,0.036860,
2025-11-12T17:07:47.295170+00:00,10.925000,0.045600,
2025-11-12T17:07:47.300170+00:00,10.930000,0.052820,
2025-11-12T17:07:47.305170+00:00,10.935000,0.059280,
2025-11-12T17:07:47.310170+00:00,10.940000,0.067260,
2025-11-12T17:07:47.315170+00:00,10.945000,0.077520,
2025-11-12T17:07:47.320170+00:00,10.950000,0.085120,
2025-11-12T17:07:47.325170+00:00,10.955000,0.086640,
2025-11-12T17:07:47.330170+00:00,10.960000,0.082080,
2025-11-12T17:07:47.335170+00:00,10.965000,0.076000,
2025-11-12T17:07:47.340170+00:00,10.970000,0.069540,
2025-11-12T17:07:47.345170+00:00,10.975000,0.060800,
2025-11-12T17:07:47.350170+00:00,10.980000,0.042940,
2025-11-12T17:07:47.355170+00:00,10.985000,0.017100,
2025-11-12T17:07:47.360170+00:00,10.990000,-0.022800,
2025-11-12T17:07:47.365170+00:00,10.995000,-0.074860,
2025-11-12T17:07:47.370170+00:00,11.000000,-0.135280,
2025-11-12T17:07:47.375170+00:00,11.005000,-0.196460,
2025-11-12T17:07:47.380170+00:00,11.010000,-0.247380,
2025-11-12T17:07:47.385170+00:00,11.015000,-0.279680,
2025-11-12T17:07:47.390170+00:00,11.020000,-0.297540,
2025-11-12T17:07:47.395170+00:00,11.025000,-0.299440,
2025-11-12T17:07:47.400170+00:00,11.030000,-0.287660,
2025-11-12T17:07:47.405170+00:00,11.035000,-0.265620,
2025-11-12T17:07:47.410170+00:00,11.040000,-0.237880,
2025-11-12T17:07:47.415170+00:00,11.045000,-0.209380,
2025-11-12T17:07:47.420170+00:00,11.050000,-0.181640,
2025-11-12T17:07:47.425170+00:00,11.055000,-0.154280,
2025-11-12T17:07:47.430170+00:00,11.060000,-0.130720,
2025-11-12T17:07:47.435170+00:00,11.065000,-0.109060,
2025-11-12T17:07:47.440170+00:00,11.070000,-0.091200,
2025-11-12T17:07:47.445170+00:00,11.075000,-0.076380,
2025-11-12T17:07:47.450170+00:00,11.080000,-0.064980,
2025-11-12T17:07:47.455170+00:00,11.085000,-0.054720,
2025-11-12T17:07:47.460170+00:00,11.090000,-0.046740,
2025-11-12T17:07:47.465170+00:00,11.095000,-0.042560,
2025-11-12T17:07:47.470170+00:00,11.100000,-0.039140,
2025-11-12T17:07:47.475170+00:00,11.105000,-0.035720,
2025-11-12T17:07:47.480170+00:00,11.110000,-0.031920,
2025-11-12T17:07:47.485170+00:00,11.115000,-0.027740,
2025-11-12T17:07:47.490170+00:00,11.120000,-0.024320,
2025-11-12T17:07:47.495170+00:00,11.125000,-0.025460,
2025-11-12T17:07:47.500170+00:00,11.130000,-0.026600,
2025-11-12T17:07:47.505170+00:00,11.135000,-0.026600,
2025-11-12T17:07:47.510170+00:00,11.140000,-0.024320,
2025-11-12T17:07:47.515170+00:00,11.145000,-0.024320,
2025-11-12T17:07:47.520170+00:00,11.150000,-0.023180,
2025-11-12T17:07:47.525170+00:00,11.155000,-0.023560,
2025-11-12T17:07:47.530170+00:00,11.160000,-0.023180,
2025-11-12T17:07:47.535170+00:00,11.165000,-0.024700,
2025-11-12T17:07:47.540170+00:00,11.170000,-0.024700,
2025-11-12T17:07:47.545170+00:00,11.175000,-0.024320,
2025-11-12T17:07:47.550170+00:00,11.180000,-0.022420,
2025-11-12T17:07:47.555170+00:00,11.185000,-0.021660,
2025-11-12T17:07:47.560170+00:00,11.190000,-0.022040,
2025-11-12T17:07:47.565170+00:00,11.195000,-0.023180,
2025-11-12T17:07:47.570170+00:00,11.200000,-0.024320,
2025-11-12T17:07:47.575170+00:00,11.205000,-0.025840,
2025-11-12T17:07:47.580170+00:00,11.210000,-0.025840,
2025-11-12T17:07:47.585170+00:00,11.215000,-0.027360,
2025-11-12T17:07:47.590170+00:00,11.220000,-0.028880,
2025-11-12T17:07:47.595170+00:00,11.225000,-0.030780,
2025-11-12T17:07:47.600170+00:00,11.230000,-0.031920,
2025-11-12T17:07:47.605170+00:00,11.235000,-0.032300,
2025-11-12T17:07:47.610170+00:00,11.240000,-0.033060,
2025-11-12T17:07:47.615170+00:00,11.245000,-0.034200,
2025-11-12T17:07:47.620170+00:00,11.250000,-0.034580,
2025-11-12T17:07:47.625170+00:00,11.255000,-0.037240,
2025-11-12T17:07:47.630170+00:00,11.260000,-0.038000,
2025-11-12T17:07:47.635170+00:00,11.265000,-0.038000,
2025-11-12T17:07:47.640170+00:00,11.270000,-0.036480,
2025-11-12T17:07:47.645170+00:00,11.275000,-0.034200,
2025-11-12T17:07:47.650170+00:00,11.280000,-0.033440,
2025-11-12T17:07:47.655170+00:00,11.285000,-0.033440,
2025-11-12T17:07:47.660170+00:00,11.290000,-0.032300,
2025-11-12T17:07:47.665170+00:00,11.295000,-0.031920,
2025-11-12T17:07:47.670170+00:00,11.300000,-0.032680,
2025-11-12T17:07:47.675170+00:00,11.305000,-0.033060,
2025-11-12T17:07:47.680170+00:00,11.310000,-0.034200,
2025-11-12T17:07:47.685170+00:00,11.315000,-0.031540,
2025-11-12T17:07:47.690170+00:00,11.320000,-0.029260,
