timestamp_utc,t_rel_sec,ecg_mV,event
2025-10-16T06:08:25.754633+00:00,0.000000,0.000000,
2025-10-16T06:08:25.759633+00:00,0.005000,0.000000,
2025-10-16T06:08:25.764633+00:00,0.010000,-0.001140,
2025-10-16T06:08:25.769633+00:00,0.015000,0.000000,
2025-10-16T06:08:25.774633+00:00,0.020000,0.015580,
2025-10-16T06:08:25.779633+00:00,0.025000,-0.072200,
2025-10-16T06:08:25.784633+00:00,0.030000,0.002280,
2025-10-16T06:08:25.789633+00:00,0.035000,0.416100,
2025-10-16T06:08:25.794633+00:00,0.040000,-0.534660,
2025-10-16T06:08:25.799633+00:00,0.045000,-1.355080,
2025-10-16T06:08:25.804633+00:00,0.050000,2.023120,
2025-10-16T06:08:25.809633+00:00,0.055000,3.762760,
2025-10-16T06:08:25.814633+00:00,0.060000,-3.993800,
2025-10-16T06:08:25.819633+00:00,0.065000,-12.544940,
2025-10-16T06:08:25.824633+00:00,0.070000,-4.684260,
2025-10-16T06:08:25.829633+00:00,0.075000,20.442860,
2025-10-16T06:08:25.834633+00:00,0.080000,42.036360,
2025-10-16T06:08:25.839633+00:00,0.085000,42.453600,
2025-10-16T06:08:25.844633+00:00,0.090000,28.055780,
2025-10-16T06:08:25.849633+00:00,0.095000,18.132080,
2025-10-16T06:08:25.854633+00:00,0.100000,18.598340,
2025-10-16T06:08:25.859633+00:00,0.105000,20.286680,
2025-10-16T06:08:25.864633+00:00,0.110000,19.459040,
2025-10-16T06:08:25.869633+00:00,0.115000,18.977580,
2025-10-16T06:08:25.874633+00:00,0.120000,18.949460,
2025-10-16T06:08:25.879633+00:00,0.125000,18.749580,
2025-10-16T06:08:25.884633+00:00,0.130000,18.558060,
2025-10-16T06:08:25.889633+00:00,0.135000,18.352860,
2025-10-16T06:08:25.894633+00:00,0.140000,18.137020,
2025-10-16T06:08:25.899633+00:00,0.145000,17.920800,
2025-10-16T06:08:25.904633+00:00,0.150000,17.698880,
2025-10-16T06:08:25.909633+00:00,0.155000,17.466700,
2025-10-16T06:08:25.914633+00:00,0.160000,17.227300,
2025-10-16T06:08:25.919633+00:00,0.165000,16.982580,
2025-10-16T06:08:25.924633+00:00,0.170000,16.726460,
2025-10-16T06:08:25.929633+00:00,0.175000,16.458940,
2025-10-16T06:08:25.934633+00:00,0.180000,16.190660,
2025-10-16T06:08:25.939633+00:00,0.185000,15.933780,
2025-10-16T06:08:25.944633+00:00,0.190000,15.690580,
2025-10-16T06:08:25.949633+00:00,0.195000,15.456120,
2025-10-16T06:08:25.954633+00:00,0.200000,15.223560,
2025-10-16T06:08:25.959633+00:00,0.205000,14.982640,
2025-10-16T06:08:25.964633+00:00,0.210000,14.736780,
2025-10-16T06:08:25.969633+00:00,0.215000,14.494340,
2025-10-16T06:08:25.974633+00:00,0.220000,14.266720,
2025-10-16T06:08:25.979633+00:00,0.225000,14.049740,
2025-10-16T06:08:25.984633+00:00,0.230000,13.836560,
2025-10-16T06:08:25.989633+00:00,0.235000,13.623380,
2025-10-16T06:08:25.994633+00:00,0.240000,13.414760,
2025-10-16T06:08:25.999633+00:00,0.245000,13.211460,
2025-10-16T06:08:26.004633+00:00,0.250000,13.002840,
2025-10-16T06:08:26.009633+00:00,0.255000,12.791180,
2025-10-16T06:08:26.014633+00:00,0.260000,12.584840,
2025-10-16T06:08:26.019633+00:00,0.265000,12.384960,
2025-10-16T06:08:26.024633+00:00,0.270000,12.180520,
2025-10-16T06:08:26.029633+00:00,0.275000,11.969240,
2025-10-16T06:08:26.034633+00:00,0.280000,11.754920,
2025-10-16T06:08:26.039633+00:00,0.285000,11.546300,
2025-10-16T06:08:26.044633+00:00,0.290000,11.343380,
2025-10-16T06:08:26.049633+00:00,0.295000,11.142360,
2025-10-16T06:08:26.054633+00:00,0.300000,10.942480,
2025-10-16T06:08:26.059633+00:00,0.305000,10.748300,
2025-10-16T06:08:26.064633+00:00,0.310000,10.557160,
2025-10-16T06:08:26.069633+00:00,0.315000,10.362220,
2025-10-16T06:08:26.074633+00:00,0.320000,10.163480,
2025-10-16T06:08:26.079633+00:00,0.325000,9.963220,
2025-10-16T06:08:26.084633+00:00,0.330000,9.774360,
2025-10-16T06:08:26.089633+00:00,0.335000,9.601080,
2025-10-16T06:08:26.094633+00:00,0.340000,9.411080,
2025-10-16T06:08:26.099633+00:00,0.345000,9.203220,
2025-10-16T06:08:26.104633+00:00,0.350000,9.045140,
2025-10-16T06:08:26.109633+00:00,0.355000,8.930000,
2025-10-16T06:08:26.114633+00:00,0.360000,8.662480,
2025-10-16T06:08:26.119633+00:00,0.365000,8.014960,
2025-10-16T06:08:26.124633+00:00,0.370000,6.980600,
2025-10-16T06:08:26.129633+00:00,0.375000,5.812480,
2025-10-16T06:08:26.134633+00:00,0.380000,4.779260,
2025-10-16T06:08:26.139633+00:00,0.385000,3.960740,
2025-10-16T06:08:26.144633+00:00,0.390000,3.312460,
2025-10-16T06:08:26.149633+00:00,0.395000,2.822640,
2025-10-16T06:08:26.154633+00:00,0.400000,2.501920,
2025-10-16T06:08:26.159633+00:00,0.405000,2.306980,
2025-10-16T06:08:26.164633+00:00,0.410000,2.169040,
2025-10-16T06:08:26.169633+00:00,0.415000,2.051240,
2025-10-16T06:08:26.174633+00:00,0.420000,1.944080,
2025-10-16T06:08:26.179633+00:00,0.425000,1.853640,
2025-10-16T06:08:26.184633+00:00,0.430000,1.783340,
2025-10-16T06:08:26.189633+00:00,0.435000,1.727860,
2025-10-16T06:08:26.194633+00:00,0.440000,1.676560,
2025-10-16T06:08:26.199633+00:00,0.445000,1.627160,
2025-10-16T06:08:26.204633+00:00,0.450000,1.582700,
2025-10-16T06:08:26.209633+00:00,0.455000,1.551160,
2025-10-16T06:08:26.214633+00:00,0.460000,1.532540,
2025-10-16T06:08:26.219633+00:00,0.465000,1.522280,
2025-10-16T06:08:26.224633+00:00,0.470000,1.516960,
2025-10-16T06:08:26.229633+00:00,0.475000,1.529880,
2025-10-16T06:08:26.234633+00:00,0.480000,1.570160,
2025-10-16T06:08:26.239633+00:00,0.485000,1.628680,
2025-10-16T06:08:26.244633+00:00,0.490000,1.686060,
2025-10-16T06:08:26.249633+00:00,0.495000,1.722920,
2025-10-16T06:08:26.254633+00:00,0.500000,1.735460,
2025-10-16T06:08:26.259633+00:00,0.505000,1.732040,
2025-10-16T06:08:26.264633+00:00,0.510000,1.725200,
2025-10-16T06:08:26.269633+00:00,0.515000,1.715700,
2025-10-16T06:08:26.274633+00:00,0.520000,1.698600,
2025-10-16T06:08:26.279633+00:00,0.525000,1.678460,
2025-10-16T06:08:26.284633+00:00,0.530000,1.662500,
2025-10-16T06:08:26.289633+00:00,0.535000,1.651100,
2025-10-16T06:08:26.294633+00:00,0.540000,1.636660,
2025-10-16T06:08:26.299633+00:00,0.545000,1.612720,
2025-10-16T06:08:26.304633+00:00,0.550000,1.584220,
2025-10-16T06:08:26.309633+00:00,0.555000,1.554580,
2025-10-16T06:08:26.314633+00:00,0.560000,1.526840,
2025-10-16T06:08:26.319633+00:00,0.565000,1.503280,
2025-10-16T06:08:26.324633+00:00,0.570000,1.485040,
2025-10-16T06:08:26.329633+00:00,0.575000,1.462620,
2025-10-16T06:08:26.334633+00:00,0.580000,1.431080,
2025-10-16T06:08:26.339633+00:00,0.585000,1.398780,
2025-10-16T06:08:26.344633+00:00,0.590000,1.376740,
2025-10-16T06:08:26.349633+00:00,0.595000,1.366480,
2025-10-16T06:08:26.354633+00:00,0.600000,1.356600,
2025-10-16T06:08:26.359633+00:00,0.605000,1.339500,
2025-10-16T06:08:26.364633+00:00,0.610000,1.311000,
2025-10-16T06:08:26.369633+00:00,0.615000,1.280980,
2025-10-16T06:08:26.374633+00:00,0.620000,1.262740,
2025-10-16T06:08:26.379633+00:00,0.625000,1.258180,
2025-10-16T06:08:26.384633+00:00,0.630000,1.251340,
2025-10-16T06:08:26.389633+00:00,0.635000,1.228920,
2025-10-16T06:08:26.394633+00:00,0.640000,1.194720,
2025-10-16T06:08:26.399633+00:00,0.645000,1.160520,
2025-10-16T06:08:26.404633+00:00,0.650000,1.135820,
2025-10-16T06:08:26.409633+00:00,0.655000,1.117960,
2025-10-16T06:08:26.414633+00:00,0.660000,1.106180,
2025-10-16T06:08:26.419633+00:00,0.665000,1.094020,
2025-10-16T06:08:26.424633+00:00,0.670000,1.077680,
2025-10-16T06:08:26.429633+00:00,0.675000,1.054500,
2025-10-16T06:08:26.434633+00:00,0.680000,1.027140,
2025-10-16T06:08:26.439633+00:00,0.685000,1.002820,
2025-10-16T06:08:26.444633+00:00,0.690000,0.986480,
2025-10-16T06:08:26.449633+00:00,0.695000,0.978500,
2025-10-16T06:08:26.454633+00:00,0.700000,0.973940,
2025-10-16T06:08:26.459633+00:00,0.705000,0.960640,
2025-10-16T06:08:26.464633+00:00,0.710000,0.933280,
2025-10-16T06:08:26.469633+00:00,0.715000,0.899840,
2025-10-16T06:08:26.474633+00:00,0.720000,0.878180,
2025-10-16T06:08:26.479633+00:00,0.725000,0.871340,
2025-10-16T06:08:26.484633+00:00,0.730000,0.864120,
2025-10-16T06:08:26.489633+00:00,0.735000,0.840560,
2025-10-16T06:08:26.494633+00:00,0.740000,0.806360,
2025-10-16T06:08:26.499633+00:00,0.745000,0.785840,
2025-10-16T06:08:26.504633+00:00,0.750000,0.783940,
2025-10-16T06:08:26.509633+00:00,0.755000,0.783560,
2025-10-16T06:08:26.514633+00:00,0.760000,0.766460,
2025-10-16T06:08:26.519633+00:00,0.765000,0.742900,
2025-10-16T06:08:26.524633+00:00,0.770000,0.725040,
2025-10-16T06:08:26.529633+00:00,0.775000,0.717820,
2025-10-16T06:08:26.534633+00:00,0.780000,0.705280,
2025-10-16T06:08:26.539633+00:00,0.785000,0.682100,
2025-10-16T06:08:26.544633+00:00,0.790000,0.658540,
2025-10-16T06:08:26.549633+00:00,0.795000,0.643340,
2025-10-16T06:08:26.554633+00:00,0.800000,0.635740,
2025-10-16T06:08:26.559633+00:00,0.805000,0.623960,
2025-10-16T06:08:26.564633+00:00,0.810000,0.604960,
2025-10-16T06:08:26.569633+00:00,0.815000,0.585580,
2025-10-16T06:08:26.574633+00:00,0.820000,0.565440,
2025-10-16T06:08:26.579633+00:00,0.825000,0.542640,
2025-10-16T06:08:26.584633+00:00,0.830000,0.519840,
2025-10-16T06:08:26.589633+00:00,0.835000,0.504260,
2025-10-16T06:08:26.594633+00:00,0.840000,0.500080,
2025-10-16T06:08:26.599633+00:00,0.845000,0.500080,
2025-10-16T06:08:26.604633+00:00,0.850000,0.496660,
2025-10-16T06:08:26.609633+00:00,0.855000,0.484120,
2025-10-16T06:08:26.614633+00:00,0.860000,0.474240,
2025-10-16T06:08:26.619633+00:00,0.865000,0.467400,
2025-10-16T06:08:26.624633+00:00,0.870000,0.455620,
2025-10-16T06:08:26.629633+00:00,0.875000,0.439280,
2025-10-16T06:08:26.634633+00:00,0.880000,0.421800,
2025-10-16T06:08:26.639633+00:00,0.885000,0.405080,
2025-10-16T06:08:26.644633+00:00,0.890000,0.391020,
2025-10-16T06:08:26.649633+00:00,0.895000,0.382660,
2025-10-16T06:08:26.654633+00:00,0.900000,0.376200,
2025-10-16T06:08:26.659633+00:00,0.905000,0.367080,
2025-10-16T06:08:26.664633+00:00,0.910000,0.353020,
2025-10-16T06:08:26.669633+00:00,0.915000,0.337820,
2025-10-16T06:08:26.674633+00:00,0.920000,0.328320,
2025-10-16T06:08:26.679633+00:00,0.925000,0.315400,
2025-10-16T06:08:26.684633+00:00,0.930000,0.301720,
2025-10-16T06:08:26.689633+00:00,0.935000,0.296400,
2025-10-16T06:08:26.694633+00:00,0.940000,0.302860,
2025-10-16T06:08:26.699633+00:00,0.945000,0.314640,
2025-10-16T06:08:26.704633+00:00,0.950000,0.315400,
2025-10-16T06:08:26.709633+00:00,0.955000,0.302480,
2025-10-16T06:08:26.714633+00:00,0.960000,0.280820,
2025-10-16T06:08:26.719633+00:00,0.965000,0.261060,
2025-10-16T06:08:26.724633+00:00,0.970000,0.255740,
2025-10-16T06:08:26.729633+00:00,0.975000,0.264480,
2025-10-16T06:08:26.734633+00:00,0.980000,0.281960,
2025-10-16T06:08:26.739633+00:00,0.985000,0.296020,
2025-10-16T06:08:26.744633+00:00,0.990000,0.305520,
2025-10-16T06:08:26.749633+00:00,0.995000,0.312360,
2025-10-16T06:08:26.754633+00:00,1.000000,0.316540,
2025-10-16T06:08:26.759633+00:00,1.005000,0.311220,
2025-10-16T06:08:26.764633+00:00,1.010000,0.290320,
2025-10-16T06:08:26.769633+00:00,1.015000,0.251560,
2025-10-16T06:08:26.774633+00:00,1.020000,0.200260,
2025-10-16T06:08:26.779633+00:00,1.025000,0.154280,
2025-10-16T06:08:26.784633+00:00,1.030000,0.127680,
2025-10-16T06:08:26.789633+00:00,1.035000,0.119700,
2025-10-16T06:08:26.794633+00:00,1.040000,0.112480,
2025-10-16T06:08:26.799633+00:00,1.045000,0.115140,
2025-10-16T06:08:26.804633+00:00,1.050000,0.188100,
2025-10-16T06:08:26.809633+00:00,1.055000,0.395960,
2025-10-16T06:08:26.814633+00:00,1.060000,0.731500,
2025-10-16T06:08:26.819633+00:00,1.065000,1.097440,
2025-10-16T06:08:26.824633+00:00,1.070000,1.388900,
2025-10-16T06:08:26.829633+00:00,1.075000,1.572060,
2025-10-16T06:08:26.834633+00:00,1.080000,1.664780,
2025-10-16T06:08:26.839633+00:00,1.085000,1.631340,
2025-10-16T06:08:26.844633+00:00,1.090000,1.446280,
2025-10-16T06:08:26.849633+00:00,1.095000,1.157100,
2025-10-16T06:08:26.854633+00:00,1.100000,0.908200,
2025-10-16T06:08:26.859633+00:00,1.105000,0.982300,
2025-10-16T06:08:26.864633+00:00,1.110000,1.375980,
2025-10-16T06:08:26.869633+00:00,1.115000,1.410560,
2025-10-16T06:08:26.874633+00:00,1.120000,0.441180,
2025-10-16T06:08:26.879633+00:00,1.125000,-1.203840,
2025-10-16T06:08:26.884633+00:00,1.130000,-2.491660,
2025-10-16T06:08:26.889633+00:00,1.135000,-2.965140,
2025-10-16T06:08:26.894633+00:00,1.140000,-3.213280,
2025-10-16T06:08:26.899633+00:00,1.145000,-3.965300,
2025-10-16T06:08:26.904633+00:00,1.150000,-5.079080,
2025-10-16T06:08:26.909633+00:00,1.155000,-5.852760,
2025-10-16T06:08:26.914633+00:00,1.160000,-6.099000,
2025-10-16T06:08:26.919633+00:00,1.165000,-6.108880,
2025-10-16T06:08:26.924633+00:00,1.170000,-5.975120,
2025-10-16T06:08:26.929633+00:00,1.175000,-5.689740,
2025-10-16T06:08:26.934633+00:00,1.180000,-5.470100,
2025-10-16T06:08:26.939633+00:00,1.185000,-5.561680,
2025-10-16T06:08:26.944633+00:00,1.190000,-5.907860,
2025-10-16T06:08:26.949633+00:00,1.195000,-6.199320,
2025-10-16T06:08:26.954633+00:00,1.200000,-6.241120,
2025-10-16T06:08:26.959633+00:00,1.205000,-6.124460,
2025-10-16T06:08:26.964633+00:00,1.210000,-6.024520,
2025-10-16T06:08:26.969633+00:00,1.215000,-5.969800,
2025-10-16T06:08:26.974633+00:00,1.220000,-5.912420,
2025-10-16T06:08:26.979633+00:00,1.225000,-5.850860,
2025-10-16T06:08:26.984633+00:00,1.230000,-5.792340,
2025-10-16T06:08:26.989633+00:00,1.235000,-5.728500,
2025-10-16T06:08:26.994633+00:00,1.240000,-5.660860,
2025-10-16T06:08:26.999633+00:00,1.245000,-5.597400,
2025-10-16T06:08:27.004633+00:00,1.250000,-5.543440,
2025-10-16T06:08:27.009633+00:00,1.255000,-5.491760,
2025-10-16T06:08:27.014633+00:00,1.260000,-5.433240,
2025-10-16T06:08:27.019633+00:00,1.265000,-5.372060,
2025-10-16T06:08:27.024633+00:00,1.270000,-5.310120,
2025-10-16T06:08:27.029633+00:00,1.275000,-5.239440,
2025-10-16T06:08:27.034633+00:00,1.280000,-5.149000,
2025-10-16T06:08:27.039633+00:00,1.285000,-5.053620,
2025-10-16T06:08:27.044633+00:00,1.290000,-4.971540,
2025-10-16T06:08:27.049633+00:00,1.295000,-4.904660,
2025-10-16T06:08:27.054633+00:00,1.300000,-4.841200,
2025-10-16T06:08:27.059633+00:00,1.305000,-4.770140,
2025-10-16T06:08:27.064633+00:00,1.310000,-4.697180,
2025-10-16T06:08:27.069633+00:00,1.315000,-4.625360,
2025-10-16T06:08:27.074633+00:00,1.320000,-4.556580,
2025-10-16T06:08:27.079633+00:00,1.325000,-4.491220,
2025-10-16T06:08:27.084633+00:00,1.330000,-4.429660,
2025-10-16T06:08:27.089633+00:00,1.335000,-4.370380,
2025-10-16T06:08:27.094633+00:00,1.340000,-4.314520,
2025-10-16T06:08:27.099633+00:00,1.345000,-4.258280,
2025-10-16T06:08:27.104633+00:00,1.350000,-4.198620,
2025-10-16T06:08:27.109633+00:00,1.355000,-4.135920,
2025-10-16T06:08:27.114633+00:00,1.360000,-4.079300,
2025-10-16T06:08:27.119633+00:00,1.365000,-4.024200,
2025-10-16T06:08:27.124633+00:00,1.370000,-3.964920,
2025-10-16T06:08:27.129633+00:00,1.375000,-3.902220,
2025-10-16T06:08:27.134633+00:00,1.380000,-3.847880,
2025-10-16T06:08:27.139633+00:00,1.385000,-3.802660,
2025-10-16T06:08:27.144633+00:00,1.390000,-3.760860,
2025-10-16T06:08:27.149633+00:00,1.395000,-3.706900,
2025-10-16T06:08:27.154633+00:00,1.400000,-3.632040,
2025-10-16T06:08:27.159633+00:00,1.405000,-3.554140,
2025-10-16T06:08:27.164633+00:00,1.410000,-3.499800,
2025-10-16T06:08:27.169633+00:00,1.415000,-3.467500,
2025-10-16T06:08:27.174633+00:00,1.420000,-3.440140,
2025-10-16T06:08:27.179633+00:00,1.425000,-3.393780,
2025-10-16T06:08:27.184633+00:00,1.430000,-3.337160,
2025-10-16T06:08:27.189633+00:00,1.435000,-3.291180,
2025-10-16T06:08:27.194633+00:00,1.440000,-3.251660,
2025-10-16T06:08:27.199633+00:00,1.445000,-3.204540,
2025-10-16T06:08:27.204633+00:00,1.450000,-3.154380,
2025-10-16T06:08:27.209633+00:00,1.455000,-3.107640,
2025-10-16T06:08:27.214633+00:00,1.460000,-3.057860,
2025-10-16T06:08:27.219633+00:00,1.465000,-2.999340,
2025-10-16T06:08:27.224633+00:00,1.470000,-2.943860,
2025-10-16T06:08:27.229633+00:00,1.475000,-2.901680,
2025-10-16T06:08:27.234633+00:00,1.480000,-2.866720,
2025-10-16T06:08:27.239633+00:00,1.485000,-2.824160,
2025-10-16T06:08:27.244633+00:00,1.490000,-2.780080,
2025-10-16T06:08:27.249633+00:00,1.495000,-2.743220,
2025-10-16T06:08:27.254633+00:00,1.500000,-2.714340,
2025-10-16T06:08:27.259633+00:00,1.505000,-2.676720,
2025-10-16T06:08:27.264633+00:00,1.510000,-2.637960,
2025-10-16T06:08:27.269633+00:00,1.515000,-2.607560,
2025-10-16T06:08:27.274633+00:00,1.520000,-2.573740,
2025-10-16T06:08:27.279633+00:00,1.525000,-2.526620,
2025-10-16T06:08:27.284633+00:00,1.530000,-2.476080,
2025-10-16T06:08:27.289633+00:00,1.535000,-2.430860,
2025-10-16T06:08:27.294633+00:00,1.540000,-2.394380,
2025-10-16T06:08:27.299633+00:00,1.545000,-2.359420,
2025-10-16T06:08:27.304633+00:00,1.550000,-2.324460,
2025-10-16T06:08:27.309633+00:00,1.555000,-2.292540,
2025-10-16T06:08:27.314633+00:00,1.560000,-2.264420,
2025-10-16T06:08:27.319633+00:00,1.565000,-2.237440,
2025-10-16T06:08:27.324633+00:00,1.570000,-2.205520,
2025-10-16T06:08:27.329633+00:00,1.575000,-2.170180,
2025-10-16T06:08:27.334633+00:00,1.580000,-2.139020,
2025-10-16T06:08:27.339633+00:00,1.585000,-2.114700,
2025-10-16T06:08:27.344633+00:00,1.590000,-2.093040,
2025-10-16T06:08:27.349633+00:00,1.595000,-2.063400,
2025-10-16T06:08:27.354633+00:00,1.600000,-2.026540,
2025-10-16T06:08:27.359633+00:00,1.605000,-1.990440,
2025-10-16T06:08:27.364633+00:00,1.610000,-1.955860,
2025-10-16T06:08:27.369633+00:00,1.615000,-1.925460,
2025-10-16T06:08:27.374633+00:00,1.620000,-1.903420,
2025-10-16T06:08:27.379633+00:00,1.625000,-1.881760,
2025-10-16T06:08:27.384633+00:00,1.630000,-1.848700,
2025-10-16T06:08:27.389633+00:00,1.635000,-1.806140,
2025-10-16T06:08:27.394633+00:00,1.640000,-1.773840,
2025-10-16T06:08:27.399633+00:00,1.645000,-1.757120,
2025-10-16T06:08:27.404633+00:00,1.650000,-1.735840,
2025-10-16T06:08:27.409633+00:00,1.655000,-1.698980,
2025-10-16T06:08:27.414633+00:00,1.660000,-1.659080,
2025-10-16T06:08:27.419633+00:00,1.665000,-1.632860,
2025-10-16T06:08:27.424633+00:00,1.670000,-1.616520,
2025-10-16T06:08:27.429633+00:00,1.675000,-1.598660,
2025-10-16T06:08:27.434633+00:00,1.680000,-1.575480,
2025-10-16T06:08:27.439633+00:00,1.685000,-1.547360,
2025-10-16T06:08:27.444633+00:00,1.690000,-1.516580,
2025-10-16T06:08:27.449633+00:00,1.695000,-1.494160,
2025-10-16T06:08:27.454633+00:00,1.700000,-1.490740,
2025-10-16T06:08:27.459633+00:00,1.705000,-1.487700,
2025-10-16T06:08:27.464633+00:00,1.710000,-1.462620,
2025-10-16T06:08:27.469633+00:00,1.715000,-1.423480,
2025-10-16T06:08:27.474633+00:00,1.720000,-1.397640,
2025-10-16T06:08:27.479633+00:00,1.725000,-1.388140,
2025-10-16T06:08:27.484633+00:00,1.730000,-1.376360,
2025-10-16T06:08:27.489633+00:00,1.735000,-1.345960,
2025-10-16T06:08:27.494633+00:00,1.740000,-1.315940,
2025-10-16T06:08:27.499633+00:00,1.745000,-1.300740,
2025-10-16T06:08:27.504633+00:00,1.750000,-1.288200,
2025-10-16T06:08:27.509633+00:00,1.755000,-1.270340,
2025-10-16T06:08:27.514633+00:00,1.760000,-1.252860,
2025-10-16T06:08:27.519633+00:00,1.765000,-1.242600,
2025-10-16T06:08:27.524633+00:00,1.770000,-1.230820,
2025-10-16T06:08:27.529633+00:00,1.775000,-1.205740,
2025-10-16T06:08:27.534633+00:00,1.780000,-1.173820,
2025-10-16T06:08:27.539633+00:00,1.785000,-1.149500,
2025-10-16T06:08:27.544633+00:00,1.790000,-1.137340,
2025-10-16T06:08:27.549633+00:00,1.795000,-1.128600,
2025-10-16T06:08:27.554633+00:00,1.800000,-1.110360,
2025-10-16T06:08:27.559633+00:00,1.805000,-1.084900,
2025-10-16T06:08:27.564633+00:00,1.810000,-1.062480,
2025-10-16T06:08:27.569633+00:00,1.815000,-1.047280,
2025-10-16T06:08:27.574633+00:00,1.820000,-1.040060,
2025-10-16T06:08:27.579633+00:00,1.825000,-1.038160,
2025-10-16T06:08:27.584633+00:00,1.830000,-1.038540,
2025-10-16T06:08:27.589633+00:00,1.835000,-1.032840,
2025-10-16T06:08:27.594633+00:00,1.840000,-1.016120,
2025-10-16T06:08:27.599633+00:00,1.845000,-0.988760,
2025-10-16T06:08:27.604633+00:00,1.850000,-0.961400,
2025-10-16T06:08:27.609633+00:00,1.855000,-0.947720,
2025-10-16T06:08:27.614633+00:00,1.860000,-0.939740,
2025-10-16T06:08:27.619633+00:00,1.865000,-0.930240,
2025-10-16T06:08:27.624633+00:00,1.870000,-0.914280,
2025-10-16T06:08:27.629633+00:00,1.875000,-0.890340,
2025-10-16T06:08:27.634633+00:00,1.880000,-0.866780,
2025-10-16T06:08:27.639633+00:00,1.885000,-0.858040,
2025-10-16T06:08:27.644633+00:00,1.890000,-0.863360,
2025-10-16T06:08:27.649633+00:00,1.895000,-0.859560,
2025-10-16T06:08:27.654633+00:00,1.900000,-0.841320,
2025-10-16T06:08:27.659633+00:00,1.905000,-0.824220,
2025-10-16T06:08:27.664633+00:00,1.910000,-0.816620,
2025-10-16T06:08:27.669633+00:00,1.915000,-0.809400,
2025-10-16T06:08:27.674633+00:00,1.920000,-0.793440,
2025-10-16T06:08:27.679633+00:00,1.925000,-0.775580,
2025-10-16T06:08:27.684633+00:00,1.930000,-0.771780,
2025-10-16T06:08:27.689633+00:00,1.935000,-0.777480,
2025-10-16T06:08:27.694633+00:00,1.940000,-0.774820,
2025-10-16T06:08:27.699633+00:00,1.945000,-0.756200,
2025-10-16T06:08:27.704633+00:00,1.950000,-0.740240,
2025-10-16T06:08:27.709633+00:00,1.955000,-0.729220,
2025-10-16T06:08:27.714633+00:00,1.960000,-0.720480,
2025-10-16T06:08:27.719633+00:00,1.965000,-0.712880,
2025-10-16T06:08:27.724633+00:00,1.970000,-0.703760,
2025-10-16T06:08:27.729633+00:00,1.975000,-0.686280,
2025-10-16T06:08:27.734633+00:00,1.980000,-0.663860,
2025-10-16T06:08:27.739633+00:00,1.985000,-0.644860,
2025-10-16T06:08:27.744633+00:00,1.990000,-0.633080,
2025-10-16T06:08:27.749633+00:00,1.995000,-0.621680,
2025-10-16T06:08:27.754633+00:00,2.000000,-0.611800,
2025-10-16T06:08:27.759633+00:00,2.005000,-0.612560,
2025-10-16T06:08:27.764633+00:00,2.010000,-0.625100,
2025-10-16T06:08:27.769633+00:00,2.015000,-0.633080,
2025-10-16T06:08:27.774633+00:00,2.020000,-0.620540,
2025-10-16T06:08:27.779633+00:00,2.025000,-0.593940,
2025-10-16T06:08:27.784633+00:00,2.030000,-0.575700,
2025-10-16T06:08:27.789633+00:00,2.035000,-0.570760,
2025-10-16T06:08:27.794633+00:00,2.040000,-0.567720,
2025-10-16T06:08:27.799633+00:00,2.045000,-0.563160,
2025-10-16T06:08:27.804633+00:00,2.050000,-0.559740,
2025-10-16T06:08:27.809633+00:00,2.055000,-0.555560,
2025-10-16T06:08:27.814633+00:00,2.060000,-0.548340,
2025-10-16T06:08:27.819633+00:00,2.065000,-0.538080,
2025-10-16T06:08:27.824633+00:00,2.070000,-0.527820,
2025-10-16T06:08:27.829633+00:00,2.075000,-0.519080,
2025-10-16T06:08:27.834633+00:00,2.080000,-0.514520,
2025-10-16T06:08:27.839633+00:00,2.085000,-0.509960,
2025-10-16T06:08:27.844633+00:00,2.090000,-0.502360,
2025-10-16T06:08:27.849633+00:00,2.095000,-0.493620,
2025-10-16T06:08:27.854633+00:00,2.100000,-0.484500,
2025-10-16T06:08:27.859633+00:00,2.105000,-0.482980,
2025-10-16T06:08:27.864633+00:00,2.110000,-0.482600,
2025-10-16T06:08:27.869633+00:00,2.115000,-0.472720,
2025-10-16T06:08:27.874633+00:00,2.120000,-0.450680,
2025-10-16T06:08:27.879633+00:00,2.125000,-0.429400,
2025-10-16T06:08:27.884633+00:00,2.130000,-0.423700,
2025-10-16T06:08:27.889633+00:00,2.135000,-0.426360,
2025-10-16T06:08:27.894633+00:00,2.140000,-0.431300,
2025-10-16T06:08:27.899633+00:00,2.145000,-0.430540,
2025-10-16T06:08:27.904633+00:00,2.150000,-0.426360,
2025-10-16T06:08:27.909633+00:00,2.155000,-0.420660,
2025-10-16T06:08:27.914633+00:00,2.160000,-0.411540,
2025-10-16T06:08:27.919633+00:00,2.165000,-0.400140,
2025-10-16T06:08:27.924633+00:00,2.170000,-0.389880,
2025-10-16T06:08:27.929633+00:00,2.175000,-0.387220,
2025-10-16T06:08:27.934633+00:00,2.180000,-0.387600,
2025-10-16T06:08:27.939633+00:00,2.185000,-0.383420,
2025-10-16T06:08:27.944633+00:00,2.190000,-0.378480,
2025-10-16T06:08:27.949633+00:00,2.195000,-0.372020,
2025-10-16T06:08:27.954633+00:00,2.200000,-0.364040,
2025-10-16T06:08:27.959633+00:00,2.205000,-0.361760,
2025-10-16T06:08:27.964633+00:00,2.210000,-0.365940,
2025-10-16T06:08:27.969633+00:00,2.215000,-0.365180,
2025-10-16T06:08:27.974633+00:00,2.220000,-0.357960,
2025-10-16T06:08:27.979633+00:00,2.225000,-0.346940,
2025-10-16T06:08:27.984633+00:00,2.230000,-0.338580,
2025-10-16T06:08:27.989633+00:00,2.235000,-0.337820,
2025-10-16T06:08:27.994633+00:00,2.240000,-0.336300,
2025-10-16T06:08:27.999633+00:00,2.245000,-0.332880,
2025-10-16T06:08:28.004633+00:00,2.250000,-0.333260,
2025-10-16T06:08:28.009633+00:00,2.255000,-0.337440,
2025-10-16T06:08:28.014633+00:00,2.260000,-0.335540,
2025-10-16T06:08:28.019633+00:00,2.265000,-0.326040,
2025-10-16T06:08:28.024633+00:00,2.270000,-0.315020,
2025-10-16T06:08:28.029633+00:00,2.275000,-0.307420,
2025-10-16T06:08:28.034633+00:00,2.280000,-0.307040,
2025-10-16T06:08:28.039633+00:00,2.285000,-0.314640,
2025-10-16T06:08:28.044633+00:00,2.290000,-0.319580,
2025-10-16T06:08:28.049633+00:00,2.295000,-0.319580,
2025-10-16T06:08:28.054633+00:00,2.300000,-0.316160,
2025-10-16T06:08:28.059633+00:00,2.305000,-0.308560,
2025-10-16T06:08:28.064633+00:00,2.310000,-0.302100,
2025-10-16T06:08:28.069633+00:00,2.315000,-0.299820,
2025-10-16T06:08:28.074633+00:00,2.320000,-0.295260,
2025-10-16T06:08:28.079633+00:00,2.325000,-0.286520,
2025-10-16T06:08:28.084633+00:00,2.330000,-0.270560,
2025-10-16T06:08:28.089633+00:00,2.335000,-0.258400,
2025-10-16T06:08:28.094633+00:00,2.340000,-0.252700,
2025-10-16T06:08:28.099633+00:00,2.345000,-0.252700,
2025-10-16T06:08:28.104633+00:00,2.350000,-0.254220,
2025-10-16T06:08:28.109633+00:00,2.355000,-0.254980,
2025-10-16T06:08:28.114633+00:00,2.360000,-0.252320,
2025-10-16T06:08:28.119633+00:00,2.365000,-0.248900,
2025-10-16T06:08:28.124633+00:00,2.370000,-0.246240,
2025-10-16T06:08:28.129633+00:00,2.375000,-0.243580,
2025-10-16T06:08:28.134633+00:00,2.380000,-0.240920,
2025-10-16T06:08:28.139633+00:00,2.385000,-0.241300,
2025-10-16T06:08:28.144633+00:00,2.390000,-0.240920,
2025-10-16T06:08:28.149633+00:00,2.395000,-0.234460,
2025-10-16T06:08:28.154633+00:00,2.400000,-0.229140,
2025-10-16T06:08:28.159633+00:00,2.405000,-0.237880,
2025-10-16T06:08:28.164633+00:00,2.410000,-0.252320,
2025-10-16T06:08:28.169633+00:00,2.415000,-0.254220,
2025-10-16T06:08:28.174633+00:00,2.420000,-0.236740,
2025-10-16T06:08:28.179633+00:00,2.425000,-0.214700,
2025-10-16T06:08:28.184633+00:00,2.430000,-0.205580,
2025-10-16T06:08:28.189633+00:00,2.435000,-0.209380,
2025-10-16T06:08:28.194633+00:00,2.440000,-0.217740,
2025-10-16T06:08:28.199633+00:00,2.445000,-0.225720,
2025-10-16T06:08:28.204633+00:00,2.450000,-0.226100,
2025-10-16T06:08:28.209633+00:00,2.455000,-0.216220,
2025-10-16T06:08:28.214633+00:00,2.460000,-0.202920,
2025-10-16T06:08:28.219633+00:00,2.465000,-0.207480,
2025-10-16T06:08:28.224633+00:00,2.470000,-0.220400,
2025-10-16T06:08:28.229633+00:00,2.475000,-0.220780,
2025-10-16T06:08:28.234633+00:00,2.480000,-0.196460,
2025-10-16T06:08:28.239633+00:00,2.485000,-0.169100,
2025-10-16T06:08:28.244633+00:00,2.490000,-0.160740,
2025-10-16T06:08:28.249633+00:00,2.495000,-0.171000,
2025-10-16T06:08:28.254633+00:00,2.500000,-0.182020,
2025-10-16T06:08:28.259633+00:00,2.505000,-0.180120,
2025-10-16T06:08:28.264633+00:00,2.510000,-0.168720,
2025-10-16T06:08:28.269633+00:00,2.515000,-0.160740,
2025-10-16T06:08:28.274633+00:00,2.520000,-0.157700,
2025-10-16T06:08:28.279633+00:00,2.525000,-0.152760,
2025-10-16T06:08:28.284633+00:00,2.530000,-0.152000,
2025-10-16T06:08:28.289633+00:00,2.535000,-0.162260,
2025-10-16T06:08:28.294633+00:00,2.540000,-0.170240,
2025-10-16T06:08:28.299633+00:00,2.545000,-0.167200,
2025-10-16T06:08:28.304633+00:00,2.550000,-0.160360,
2025-10-16T06:08:28.309633+00:00,2.555000,-0.157320,
2025-10-16T06:08:28.314633+00:00,2.560000,-0.158840,
2025-10-16T06:08:28.319633+00:00,2.565000,-0.160740,
2025-10-16T06:08:28.324633+00:00,2.570000,-0.159980,
2025-10-16T06:08:28.329633+00:00,2.575000,-0.162260,
2025-10-16T06:08:28.334633+00:00,2.580000,-0.163020,
2025-10-16T06:08:28.339633+00:00,2.585000,-0.158080,
2025-10-16T06:08:28.344633+00:00,2.590000,-0.143640,
2025-10-16T06:08:28.349633+00:00,2.595000,-0.131480,
2025-10-16T06:08:28.354633+00:00,2.600000,-0.129960,
2025-10-16T06:08:28.359633+00:00,2.605000,-0.141360,
2025-10-16T06:08:28.364633+00:00,2.610000,-0.156940,
2025-10-16T06:08:28.369633+00:00,2.615000,-0.164160,
2025-10-16T06:08:28.374633+00:00,2.620000,-0.150480,
2025-10-16T06:08:28.379633+00:00,2.625000,-0.128060,
2025-10-16T06:08:28.384633+00:00,2.630000,-0.121220,
2025-10-16T06:08:28.389633+00:00,2.635000,-0.136800,
2025-10-16T06:08:28.394633+00:00,2.640000,-0.153900,
2025-10-16T06:08:28.399633+00:00,2.645000,-0.152000,
2025-10-16T06:08:28.404633+00:00,2.650000,-0.133000,
2025-10-16T06:08:28.409633+00:00,2.655000,-0.117800,
2025-10-16T06:08:28.414633+00:00,2.660000,-0.112100,
2025-10-16T06:08:28.419633+00:00,2.665000,-0.120080,
2025-10-16T06:08:28.424633+00:00,2.670000,-0.130340,
2025-10-16T06:08:28.429633+00:00,2.675000,-0.139460,
2025-10-16T06:08:28.434633+00:00,2.680000,-0.144400,
2025-10-16T06:08:28.439633+00:00,2.685000,-0.147820,
2025-10-16T06:08:28.444633+00:00,2.690000,-0.142500,
2025-10-16T06:08:28.449633+00:00,2.695000,-0.129200,
2025-10-16T06:08:28.454633+00:00,2.700000,-0.117800,
2025-10-16T06:08:28.459633+00:00,2.705000,-0.120840,
2025-10-16T06:08:28.464633+00:00,2.710000,-0.135280,
2025-10-16T06:08:28.469633+00:00,2.715000,-0.147440,
2025-10-16T06:08:28.474633+00:00,2.720000,-0.144020,
2025-10-16T06:08:28.479633+00:00,2.725000,-0.133000,
2025-10-16T06:08:28.484633+00:00,2.730000,-0.130720,
2025-10-16T06:08:28.489633+00:00,2.735000,-0.134520,
2025-10-16T06:08:28.494633+00:00,2.740000,-0.136420,
2025-10-16T06:08:28.499633+00:00,2.745000,-0.136040,
2025-10-16T06:08:28.504633+00:00,2.750000,-0.138320,
2025-10-16T06:08:28.509633+00:00,2.755000,-0.137940,
2025-10-16T06:08:28.514633+00:00,2.760000,-0.123500,
2025-10-16T06:08:28.519633+00:00,2.765000,-0.103740,
2025-10-16T06:08:28.524633+00:00,2.770000,-0.096140,
2025-10-16T06:08:28.529633+00:00,2.775000,-0.098800,
2025-10-16T06:08:28.534633+00:00,2.780000,-0.098800,
2025-10-16T06:08:28.539633+00:00,2.785000,-0.098800,
2025-10-16T06:08:28.544633+00:00,2.790000,-0.109440,
2025-10-16T06:08:28.549633+00:00,2.795000,-0.120840,
2025-10-16T06:08:28.554633+00:00,2.800000,-0.115520,
2025-10-16T06:08:28.559633+00:00,2.805000,-0.096520,
2025-10-16T06:08:28.564633+00:00,2.810000,-0.084740,
2025-10-16T06:08:28.569633+00:00,2.815000,-0.089680,
2025-10-16T06:08:28.574633+00:00,2.820000,-0.100320,
2025-10-16T06:08:28.579633+00:00,2.825000,-0.101460,
2025-10-16T06:08:28.584633+00:00,2.830000,-0.099940,
2025-10-16T06:08:28.589633+00:00,2.835000,-0.094620,
2025-10-16T06:08:28.594633+00:00,2.840000,-0.086260,
2025-10-16T06:08:28.599633+00:00,2.845000,-0.085120,
2025-10-16T06:08:28.604633+00:00,2.850000,-0.091960,
2025-10-16T06:08:28.609633+00:00,2.855000,-0.098800,
2025-10-16T06:08:28.614633+00:00,2.860000,-0.094240,
2025-10-16T06:08:28.619633+00:00,2.865000,-0.081320,
2025-10-16T06:08:28.624633+00:00,2.870000,-0.073720,
2025-10-16T06:08:28.629633+00:00,2.875000,-0.072580,
2025-10-16T06:08:28.634633+00:00,2.880000,-0.075240,
2025-10-16T06:08:28.639633+00:00,2.885000,-0.077140,
2025-10-16T06:08:28.644633+00:00,2.890000,-0.074100,
2025-10-16T06:08:28.649633+00:00,2.895000,-0.069160,
2025-10-16T06:08:28.654633+00:00,2.900000,-0.067640,
2025-10-16T06:08:28.659633+00:00,2.905000,-0.074860,
2025-10-16T06:08:28.664633+00:00,2.910000,-0.089300,
2025-10-16T06:08:28.669633+00:00,2.915000,-0.100700,
2025-10-16T06:08:28.674633+00:00,2.920000,-0.098420,
2025-10-16T06:08:28.679633+00:00,2.925000,-0.087400,
2025-10-16T06:08:28.684633+00:00,2.930000,-0.080940,
2025-10-16T06:08:28.689633+00:00,2.935000,-0.075240,
2025-10-16T06:08:28.694633+00:00,2.940000,-0.065360,
2025-10-16T06:08:28.699633+00:00,2.945000,-0.057380,
2025-10-16T06:08:28.704633+00:00,2.950000,-0.058520,
2025-10-16T06:08:28.709633+00:00,2.955000,-0.064220,
2025-10-16T06:08:28.714633+00:00,2.960000,-0.068780,
2025-10-16T06:08:28.719633+00:00,2.965000,-0.071440,
2025-10-16T06:08:28.724633+00:00,2.970000,-0.078660,
2025-10-16T06:08:28.729633+00:00,2.975000,-0.088540,
2025-10-16T06:08:28.734633+00:00,2.980000,-0.091960,
2025-10-16T06:08:28.739633+00:00,2.985000,-0.083220,
2025-10-16T06:08:28.744633+00:00,2.990000,-0.071820,
2025-10-16T06:08:28.749633+00:00,2.995000,-0.070680,
2025-10-16T06:08:28.754633+00:00,3.000000,-0.076380,
2025-10-16T06:08:28.759633+00:00,3.005000,-0.073340,
2025-10-16T06:08:28.764633+00:00,3.010000,-0.060420,
2025-10-16T06:08:28.769633+00:00,3.015000,-0.054340,
2025-10-16T06:08:28.774633+00:00,3.020000,-0.063840,
2025-10-16T06:08:28.779633+00:00,3.025000,-0.080180,
2025-10-16T06:08:28.784633+00:00,3.030000,-0.083600,
2025-10-16T06:08:28.789633+00:00,3.035000,-0.072200,
2025-10-16T06:08:28.794633+00:00,3.040000,-0.062700,
2025-10-16T06:08:28.799633+00:00,3.045000,-0.066120,
2025-10-16T06:08:28.804633+00:00,3.050000,-0.071440,
2025-10-16T06:08:28.809633+00:00,3.055000,-0.071820,
2025-10-16T06:08:28.814633+00:00,3.060000,-0.072580,
2025-10-16T06:08:28.819633+00:00,3.065000,-0.081320,
2025-10-16T06:08:28.824633+00:00,3.070000,-0.088540,
2025-10-16T06:08:28.829633+00:00,3.075000,-0.086260,
2025-10-16T06:08:28.834633+00:00,3.080000,-0.076000,
2025-10-16T06:08:28.839633+00:00,3.085000,-0.067640,
2025-10-16T06:08:28.844633+00:00,3.090000,-0.065360,
2025-10-16T06:08:28.849633+00:00,3.095000,-0.066880,
2025-10-16T06:08:28.854633+00:00,3.100000,-0.070680,
2025-10-16T06:08:28.859633+00:00,3.105000,-0.076000,
2025-10-16T06:08:28.864633+00:00,3.110000,-0.077520,
2025-10-16T06:08:28.869633+00:00,3.115000,-0.077520,
2025-10-16T06:08:28.874633+00:00,3.120000,-0.074860,
2025-10-16T06:08:28.879633+00:00,3.125000,-0.075620,
2025-10-16T06:08:28.884633+00:00,3.130000,-0.077140,
2025-10-16T06:08:28.889633+00:00,3.135000,-0.077140,
2025-10-16T06:08:28.894633+00:00,3.140000,-0.068400,
2025-10-16T06:08:28.899633+00:00,3.145000,-0.055100,
2025-10-16T06:08:28.904633+00:00,3.150000,-0.046360,
2025-10-16T06:08:28.909633+00:00,3.155000,-0.049400,
2025-10-16T06:08:28.914633+00:00,3.160000,-0.056240,
2025-10-16T06:08:28.919633+00:00,3.165000,-0.064600,
2025-10-16T06:08:28.924633+00:00,3.170000,-0.069920,
2025-10-16T06:08:28.929633+00:00,3.175000,-0.074100,
2025-10-16T06:08:28.934633+00:00,3.180000,-0.074480,
2025-10-16T06:08:28.939633+00:00,3.185000,-0.072200,
2025-10-16T06:08:28.944633+00:00,3.190000,-0.068020,
2025-10-16T06:08:28.949633+00:00,3.195000,-0.066880,
2025-10-16T06:08:28.954633+00:00,3.200000,-0.070300,
2025-10-16T06:08:28.959633+00:00,3.205000,-0.068780,
2025-10-16T06:08:28.964633+00:00,3.210000,-0.061180,
2025-10-16T06:08:28.969633+00:00,3.215000,-0.058520,
2025-10-16T06:08:28.974633+00:00,3.220000,-0.060040,
2025-10-16T06:08:28.979633+00:00,3.225000,-0.057000,
2025-10-16T06:08:28.984633+00:00,3.230000,-0.046740,
2025-10-16T06:08:28.989633+00:00,3.235000,-0.041420,
2025-10-16T06:08:28.994633+00:00,3.240000,-0.046360,
2025-10-16T06:08:28.999633+00:00,3.245000,-0.054340,
2025-10-16T06:08:29.004633+00:00,3.250000,-0.058520,
2025-10-16T06:08:29.009633+00:00,3.255000,-0.063080,
2025-10-16T06:08:29.014633+00:00,3.260000,-0.068020,
2025-10-16T06:08:29.019633+00:00,3.265000,-0.068780,
2025-10-16T06:08:29.024633+00:00,3.270000,-0.054720,
2025-10-16T06:08:29.029633+00:00,3.275000,-0.043700,
2025-10-16T06:08:29.034633+00:00,3.280000,-0.047120,
2025-10-16T06:08:29.039633+00:00,3.285000,-0.053200,
2025-10-16T06:08:29.044633+00:00,3.290000,-0.046360,
2025-10-16T06:08:29.049633+00:00,3.295000,-0.036480,
2025-10-16T06:08:29.054633+00:00,3.300000,-0.043700,
2025-10-16T06:08:29.059633+00:00,3.305000,-0.063460,
2025-10-16T06:08:29.064633+00:00,3.310000,-0.073720,
2025-10-16T06:08:29.069633+00:00,3.315000,-0.069160,
2025-10-16T06:08:29.074633+00:00,3.320000,-0.064980,
2025-10-16T06:08:29.079633+00:00,3.325000,-0.066880,
2025-10-16T06:08:29.084633+00:00,3.330000,-0.070300,
2025-10-16T06:08:29.089633+00:00,3.335000,-0.069160,
2025-10-16T06:08:29.094633+00:00,3.340000,-0.064980,
2025-10-16T06:08:29.099633+00:00,3.345000,-0.065360,
2025-10-16T06:08:29.104633+00:00,3.350000,-0.073720,
2025-10-16T06:08:29.109633+00:00,3.355000,-0.081320,
2025-10-16T06:08:29.114633+00:00,3.360000,-0.073720,
2025-10-16T06:08:29.119633+00:00,3.365000,-0.053960,
2025-10-16T06:08:29.124633+00:00,3.370000,-0.042180,
2025-10-16T06:08:29.129633+00:00,3.375000,-0.044460,
2025-10-16T06:08:29.134633+00:00,3.380000,-0.049780,
2025-10-16T06:08:29.139633+00:00,3.385000,-0.044460,
2025-10-16T06:08:29.144633+00:00,3.390000,-0.034200,
2025-10-16T06:08:29.149633+00:00,3.395000,-0.033440,
2025-10-16T06:08:29.154633+00:00,3.400000,-0.045220,
2025-10-16T06:08:29.159633+00:00,3.405000,-0.053960,
2025-10-16T06:08:29.164633+00:00,3.410000,-0.052060,
2025-10-16T06:08:29.169633+00:00,3.415000,-0.050160,
2025-10-16T06:08:29.174633+00:00,3.420000,-0.055480,
2025-10-16T06:08:29.179633+00:00,3.425000,-0.063080,
2025-10-16T06:08:29.184633+00:00,3.430000,-0.064220,
2025-10-16T06:08:29.189633+00:00,3.435000,-0.061560,
2025-10-16T06:08:29.194633+00:00,3.440000,-0.062320,
2025-10-16T06:08:29.199633+00:00,3.445000,-0.064980,
2025-10-16T06:08:29.204633+00:00,3.450000,-0.065360,
2025-10-16T06:08:29.209633+00:00,3.455000,-0.063460,
2025-10-16T06:08:29.214633+00:00,3.460000,-0.062320,
2025-10-16T06:08:29.219633+00:00,3.465000,-0.063080,
2025-10-16T06:08:29.224633+00:00,3.470000,-0.058520,
2025-10-16T06:08:29.229633+00:00,3.475000,-0.047120,
2025-10-16T06:08:29.234633+00:00,3.480000,-0.045600,
2025-10-16T06:08:29.239633+00:00,3.485000,-0.059280,
2025-10-16T06:08:29.244633+00:00,3.490000,-0.071440,
2025-10-16T06:08:29.249633+00:00,3.495000,-0.063840,
2025-10-16T06:08:29.254633+00:00,3.500000,-0.045220,
2025-10-16T06:08:29.259633+00:00,3.505000,-0.035720,
2025-10-16T06:08:29.264633+00:00,3.510000,-0.044840,
2025-10-16T06:08:29.269633+00:00,3.515000,-0.062700,
2025-10-16T06:08:29.274633+00:00,3.520000,-0.067260,
2025-10-16T06:08:29.279633+00:00,3.525000,-0.056620,
2025-10-16T06:08:29.284633+00:00,3.530000,-0.044840,
2025-10-16T06:08:29.289633+00:00,3.535000,-0.045980,
2025-10-16T06:08:29.294633+00:00,3.540000,-0.058520,
2025-10-16T06:08:29.299633+00:00,3.545000,-0.067260,
2025-10-16T06:08:29.304633+00:00,3.550000,-0.067640,
2025-10-16T06:08:29.309633+00:00,3.555000,-0.060420,
2025-10-16T06:08:29.314633+00:00,3.560000,-0.051680,
2025-10-16T06:08:29.319633+00:00,3.565000,-0.047880,
2025-10-16T06:08:29.324633+00:00,3.570000,-0.051680,
2025-10-16T06:08:29.329633+00:00,3.575000,-0.061560,
2025-10-16T06:08:29.334633+00:00,3.580000,-0.072200,
2025-10-16T06:08:29.339633+00:00,3.585000,-0.077520,
2025-10-16T06:08:29.344633+00:00,3.590000,-0.075620,
2025-10-16T06:08:29.349633+00:00,3.595000,-0.066880,
2025-10-16T06:08:29.354633+00:00,3.600000,-0.056620,
2025-10-16T06:08:29.359633+00:00,3.605000,-0.053200,
2025-10-16T06:08:29.364633+00:00,3.610000,-0.060800,
2025-10-16T06:08:29.369633+00:00,3.615000,-0.074860,
2025-10-16T06:08:29.374633+00:00,3.620000,-0.080940,
2025-10-16T06:08:29.379633+00:00,3.625000,-0.075240,
2025-10-16T06:08:29.384633+00:00,3.630000,-0.065740,
2025-10-16T06:08:29.389633+00:00,3.635000,-0.058520,
2025-10-16T06:08:29.394633+00:00,3.640000,-0.049780,
2025-10-16T06:08:29.399633+00:00,3.645000,-0.039520,
2025-10-16T06:08:29.404633+00:00,3.650000,-0.041040,
2025-10-16T06:08:29.409633+00:00,3.655000,-0.059280,
2025-10-16T06:08:29.414633+00:00,3.660000,-0.077520,
2025-10-16T06:08:29.419633+00:00,3.665000,-0.080940,
2025-10-16T06:08:29.424633+00:00,3.670000,-0.069540,
2025-10-16T06:08:29.429633+00:00,3.675000,-0.057380,
2025-10-16T06:08:29.434633+00:00,3.680000,-0.057760,
2025-10-16T06:08:29.439633+00:00,3.685000,-0.065740,
2025-10-16T06:08:29.444633+00:00,3.690000,-0.064220,
2025-10-16T06:08:29.449633+00:00,3.695000,-0.055100,
2025-10-16T06:08:29.454633+00:00,3.700000,-0.049020,
2025-10-16T06:08:29.459633+00:00,3.705000,-0.050160,
2025-10-16T06:08:29.464633+00:00,3.710000,-0.053960,
2025-10-16T06:08:29.469633+00:00,3.715000,-0.057760,
2025-10-16T06:08:29.474633+00:00,3.720000,-0.058140,
2025-10-16T06:08:29.479633+00:00,3.725000,-0.055480,
2025-10-16T06:08:29.484633+00:00,3.730000,-0.048640,
2025-10-16T06:08:29.489633+00:00,3.735000,-0.040660,
2025-10-16T06:08:29.494633+00:00,3.740000,-0.037620,
2025-10-16T06:08:29.499633+00:00,3.745000,-0.046360,
2025-10-16T06:08:29.504633+00:00,3.750000,-0.060800,
2025-10-16T06:08:29.509633+00:00,3.755000,-0.069920,
2025-10-16T06:08:29.514633+00:00,3.760000,-0.069540,
2025-10-16T06:08:29.519633+00:00,3.765000,-0.063080,
2025-10-16T06:08:29.524633+00:00,3.770000,-0.060420,
2025-10-16T06:08:29.529633+00:00,3.775000,-0.066120,
2025-10-16T06:08:29.534633+00:00,3.780000,-0.069160,
2025-10-16T06:08:29.539633+00:00,3.785000,-0.062320,
2025-10-16T06:08:29.544633+00:00,3.790000,-0.052820,
2025-10-16T06:08:29.549633+00:00,3.795000,-0.044840,
2025-10-16T06:08:29.554633+00:00,3.800000,-0.040660,
2025-10-16T06:08:29.559633+00:00,3.805000,-0.037240,
2025-10-16T06:08:29.564633+00:00,3.810000,-0.039520,
2025-10-16T06:08:29.569633+00:00,3.815000,-0.046360,
2025-10-16T06:08:29.574633+00:00,3.820000,-0.049020,
2025-10-16T06:08:29.579633+00:00,3.825000,-0.047500,
2025-10-16T06:08:29.584633+00:00,3.830000,-0.047500,
2025-10-16T06:08:29.589633+00:00,3.835000,-0.042560,
2025-10-16T06:08:29.594633+00:00,3.840000,-0.028880,
2025-10-16T06:08:29.599633+00:00,3.845000,-0.018240,
2025-10-16T06:08:29.604633+00:00,3.850000,-0.023940,
2025-10-16T06:08:29.609633+00:00,3.855000,-0.035720,
2025-10-16T06:08:29.614633+00:00,3.860000,-0.035340,
2025-10-16T06:08:29.619633+00:00,3.865000,-0.028120,
2025-10-16T06:08:29.624633+00:00,3.870000,-0.031540,
2025-10-16T06:08:29.629633+00:00,3.875000,-0.041420,
2025-10-16T06:08:29.634633+00:00,3.880000,-0.046360,
2025-10-16T06:08:29.639633+00:00,3.885000,-0.049020,
2025-10-16T06:08:29.644633+00:00,3.890000,-0.055480,
2025-10-16T06:08:29.649633+00:00,3.895000,-0.061180,
2025-10-16T06:08:29.654633+00:00,3.900000,-0.054720,
2025-10-16T06:08:29.659633+00:00,3.905000,-0.042940,
2025-10-16T06:08:29.664633+00:00,3.910000,-0.042560,
2025-10-16T06:08:29.669633+00:00,3.915000,-0.056620,
2025-10-16T06:08:29.674633+00:00,3.920000,-0.064980,
2025-10-16T06:08:29.679633+00:00,3.925000,-0.059660,
2025-10-16T06:08:29.684633+00:00,3.930000,-0.046360,
2025-10-16T06:08:29.689633+00:00,3.935000,-0.037240,
2025-10-16T06:08:29.694633+00:00,3.940000,-0.032300,
2025-10-16T06:08:29.699633+00:00,3.945000,-0.040280,
2025-10-16T06:08:29.704633+00:00,3.950000,-0.056240,
2025-10-16T06:08:29.709633+00:00,3.955000,-0.066120,
2025-10-16T06:08:29.714633+00:00,3.960000,-0.059280,
2025-10-16T06:08:29.719633+00:00,3.965000,-0.046740,
2025-10-16T06:08:29.724633+00:00,3.970000,-0.039520,
2025-10-16T06:08:29.729633+00:00,3.975000,-0.040280,
2025-10-16T06:08:29.734633+00:00,3.980000,-0.048640,
2025-10-16T06:08:29.739633+00:00,3.985000,-0.056240,
2025-10-16T06:08:29.744633+00:00,3.990000,-0.056620,
2025-10-16T06:08:29.749633+00:00,3.995000,-0.052060,
2025-10-16T06:08:29.754633+00:00,4.000000,-0.049400,
2025-10-16T06:08:29.759633+00:00,4.005000,-0.045220,
2025-10-16T06:08:29.764633+00:00,4.010000,-0.037620,
2025-10-16T06:08:29.769633+00:00,4.015000,-0.028500,
2025-10-16T06:08:29.774633+00:00,4.020000,-0.023560,
2025-10-16T06:08:29.779633+00:00,4.025000,-0.028880,
2025-10-16T06:08:29.784633+00:00,4.030000,-0.040280,
2025-10-16T06:08:29.789633+00:00,4.035000,-0.044840,
2025-10-16T06:08:29.794633+00:00,4.040000,-0.043320,
2025-10-16T06:08:29.799633+00:00,4.045000,-0.041420,
2025-10-16T06:08:29.804633+00:00,4.050000,-0.042180,
2025-10-16T06:08:29.809633+00:00,4.055000,-0.044840,
2025-10-16T06:08:29.814633+00:00,4.060000,-0.045220,
2025-10-16T06:08:29.819633+00:00,4.065000,-0.043700,
2025-10-16T06:08:29.824633+00:00,4.070000,-0.040660,
2025-10-16T06:08:29.829633+00:00,4.075000,-0.044080,
2025-10-16T06:08:29.834633+00:00,4.080000,-0.054340,
2025-10-16T06:08:29.839633+00:00,4.085000,-0.065740,
2025-10-16T06:08:29.844633+00:00,4.090000,-0.059280,
2025-10-16T06:08:29.849633+00:00,4.095000,-0.038380,
2025-10-16T06:08:29.854633+00:00,4.100000,-0.019760,
2025-10-16T06:08:29.859633+00:00,4.105000,-0.023180,
2025-10-16T06:08:29.864633+00:00,4.110000,-0.035340,
2025-10-16T06:08:29.869633+00:00,4.115000,-0.048640,
2025-10-16T06:08:29.874633+00:00,4.120000,-0.059280,
2025-10-16T06:08:29.879633+00:00,4.125000,-0.062700,
2025-10-16T06:08:29.884633+00:00,4.130000,-0.053580,
2025-10-16T06:08:29.889633+00:00,4.135000,-0.036100,
2025-10-16T06:08:29.894633+00:00,4.140000,-0.025840,
2025-10-16T06:08:29.899633+00:00,4.145000,-0.038380,
2025-10-16T06:08:29.904633+00:00,4.150000,-0.059660,
2025-10-16T06:08:29.909633+00:00,4.155000,-0.061180,
2025-10-16T06:08:29.914633+00:00,4.160000,-0.043700,
2025-10-16T06:08:29.919633+00:00,4.165000,-0.030780,
2025-10-16T06:08:29.924633+00:00,4.170000,-0.033060,
2025-10-16T06:08:29.929633+00:00,4.175000,-0.041800,
2025-10-16T06:08:29.934633+00:00,4.180000,-0.051300,
2025-10-16T06:08:29.939633+00:00,4.185000,-0.057760,
2025-10-16T06:08:29.944633+00:00,4.190000,-0.058900,
2025-10-16T06:08:29.949633+00:00,4.195000,-0.052820,
2025-10-16T06:08:29.954633+00:00,4.200000,-0.050160,
2025-10-16T06:08:29.959633+00:00,4.205000,-0.053200,
2025-10-16T06:08:29.964633+00:00,4.210000,-0.052060,
2025-10-16T06:08:29.969633+00:00,4.215000,-0.036860,
2025-10-16T06:08:29.974633+00:00,4.220000,-0.017480,
2025-10-16T06:08:29.979633+00:00,4.225000,-0.013300,
2025-10-16T06:08:29.984633+00:00,4.230000,-0.023560,
2025-10-16T06:08:29.989633+00:00,4.235000,-0.027740,
2025-10-16T06:08:29.994633+00:00,4.240000,-0.021280,
2025-10-16T06:08:29.999633+00:00,4.245000,-0.017480,
2025-10-16T06:08:30.004633+00:00,4.250000,-0.025840,
2025-10-16T06:08:30.009633+00:00,4.255000,-0.040660,
2025-10-16T06:08:30.014633+00:00,4.260000,-0.048260,
2025-10-16T06:08:30.019633+00:00,4.265000,-0.044080,
2025-10-16T06:08:30.024633+00:00,4.270000,-0.037240,
2025-10-16T06:08:30.029633+00:00,4.275000,-0.031160,
2025-10-16T06:08:30.034633+00:00,4.280000,-0.032300,
2025-10-16T06:08:30.039633+00:00,4.285000,-0.040280,
2025-10-16T06:08:30.044633+00:00,4.290000,-0.050920,
2025-10-16T06:08:30.049633+00:00,4.295000,-0.060800,
2025-10-16T06:08:30.054633+00:00,4.300000,-0.064600,
2025-10-16T06:08:30.059633+00:00,4.305000,-0.054340,
2025-10-16T06:08:30.064633+00:00,4.310000,-0.033820,
2025-10-16T06:08:30.069633+00:00,4.315000,-0.019380,
2025-10-16T06:08:30.074633+00:00,4.320000,-0.026600,
2025-10-16T06:08:30.079633+00:00,4.325000,-0.044840,
2025-10-16T06:08:30.084633+00:00,4.330000,-0.058140,
2025-10-16T06:08:30.089633+00:00,4.335000,-0.056240,
2025-10-16T06:08:30.094633+00:00,4.340000,-0.043700,
2025-10-16T06:08:30.099633+00:00,4.345000,-0.034960,
2025-10-16T06:08:30.104633+00:00,4.350000,-0.040660,
2025-10-16T06:08:30.109633+00:00,4.355000,-0.054720,
2025-10-16T06:08:30.114633+00:00,4.360000,-0.063840,
2025-10-16T06:08:30.119633+00:00,4.365000,-0.060800,
2025-10-16T06:08:30.124633+00:00,4.370000,-0.052060,
2025-10-16T06:08:30.129633+00:00,4.375000,-0.054720,
2025-10-16T06:08:30.134633+00:00,4.380000,-0.068020,
2025-10-16T06:08:30.139633+00:00,4.385000,-0.082840,
2025-10-16T06:08:30.144633+00:00,4.390000,-0.082460,
2025-10-16T06:08:30.149633+00:00,4.395000,-0.068400,
2025-10-16T06:08:30.154633+00:00,4.400000,-0.053200,
2025-10-16T06:08:30.159633+00:00,4.405000,-0.045600,
2025-10-16T06:08:30.164633+00:00,4.410000,-0.046360,
2025-10-16T06:08:30.169633+00:00,4.415000,-0.053580,
2025-10-16T06:08:30.174633+00:00,4.420000,-0.060040,
2025-10-16T06:08:30.179633+00:00,4.425000,-0.066500,
2025-10-16T06:08:30.184633+00:00,4.430000,-0.069540,
2025-10-16T06:08:30.189633+00:00,4.435000,-0.066500,
2025-10-16T06:08:30.194633+00:00,4.440000,-0.058520,
2025-10-16T06:08:30.199633+00:00,4.445000,-0.055480,
2025-10-16T06:08:30.204633+00:00,4.450000,-0.057000,
2025-10-16T06:08:30.209633+00:00,4.455000,-0.059280,
2025-10-16T06:08:30.214633+00:00,4.460000,-0.054340,
2025-10-16T06:08:30.219633+00:00,4.465000,-0.044840,
2025-10-16T06:08:30.224633+00:00,4.470000,-0.039520,
2025-10-16T06:08:30.229633+00:00,4.475000,-0.039900,
2025-10-16T06:08:30.234633+00:00,4.480000,-0.043700,
2025-10-16T06:08:30.239633+00:00,4.485000,-0.047880,
2025-10-16T06:08:30.244633+00:00,4.490000,-0.047880,
2025-10-16T06:08:30.249633+00:00,4.495000,-0.043320,
2025-10-16T06:08:30.254633+00:00,4.500000,-0.040660,
2025-10-16T06:08:30.259633+00:00,4.505000,-0.042560,
2025-10-16T06:08:30.264633+00:00,4.510000,-0.045600,
2025-10-16T06:08:30.269633+00:00,4.515000,-0.042940,
2025-10-16T06:08:30.274633+00:00,4.520000,-0.038000,
2025-10-16T06:08:30.279633+00:00,4.525000,-0.034200,
2025-10-16T06:08:30.284633+00:00,4.530000,-0.036100,
2025-10-16T06:08:30.289633+00:00,4.535000,-0.039520,
2025-10-16T06:08:30.294633+00:00,4.540000,-0.044460,
2025-10-16T06:08:30.299633+00:00,4.545000,-0.055480,
2025-10-16T06:08:30.304633+00:00,4.550000,-0.066500,
2025-10-16T06:08:30.309633+00:00,4.555000,-0.062320,
2025-10-16T06:08:30.314633+00:00,4.560000,-0.041420,
2025-10-16T06:08:30.319633+00:00,4.565000,-0.023180,
2025-10-16T06:08:30.324633+00:00,4.570000,-0.026220,
2025-10-16T06:08:30.329633+00:00,4.575000,-0.036860,
2025-10-16T06:08:30.334633+00:00,4.580000,-0.041800,
2025-10-16T06:08:30.339633+00:00,4.585000,-0.041040,
2025-10-16T06:08:30.344633+00:00,4.590000,-0.040280,
2025-10-16T06:08:30.349633+00:00,4.595000,-0.041040,
2025-10-16T06:08:30.354633+00:00,4.600000,-0.042940,
2025-10-16T06:08:30.359633+00:00,4.605000,-0.051300,
2025-10-16T06:08:30.364633+00:00,4.610000,-0.062700,
2025-10-16T06:08:30.369633+00:00,4.615000,-0.066500,
2025-10-16T06:08:30.374633+00:00,4.620000,-0.055480,
2025-10-16T06:08:30.379633+00:00,4.625000,-0.042180,
2025-10-16T06:08:30.384633+00:00,4.630000,-0.041800,
2025-10-16T06:08:30.389633+00:00,4.635000,-0.049780,
2025-10-16T06:08:30.394633+00:00,4.640000,-0.050160,
2025-10-16T06:08:30.399633+00:00,4.645000,-0.045980,
2025-10-16T06:08:30.404633+00:00,4.650000,-0.050920,
2025-10-16T06:08:30.409633+00:00,4.655000,-0.066500,
2025-10-16T06:08:30.414633+00:00,4.660000,-0.075620,
2025-10-16T06:08:30.419633+00:00,4.665000,-0.064600,
2025-10-16T06:08:30.424633+00:00,4.670000,-0.043700,
2025-10-16T06:08:30.429633+00:00,4.675000,-0.030020,
2025-10-16T06:08:30.434633+00:00,4.680000,-0.030400,
2025-10-16T06:08:30.439633+00:00,4.685000,-0.038760,
2025-10-16T06:08:30.444633+00:00,4.690000,-0.038760,
2025-10-16T06:08:30.449633+00:00,4.695000,-0.038380,
2025-10-16T06:08:30.454633+00:00,4.700000,-0.044080,
2025-10-16T06:08:30.459633+00:00,4.705000,-0.058520,
2025-10-16T06:08:30.464633+00:00,4.710000,-0.068400,
2025-10-16T06:08:30.469633+00:00,4.715000,-0.068780,
2025-10-16T06:08:30.474633+00:00,4.720000,-0.060800,
2025-10-16T06:08:30.479633+00:00,4.725000,-0.050920,
2025-10-16T06:08:30.484633+00:00,4.730000,-0.042180,
2025-10-16T06:08:30.489633+00:00,4.735000,-0.036860,
2025-10-16T06:08:30.494633+00:00,4.740000,-0.034960,
2025-10-16T06:08:30.499633+00:00,4.745000,-0.044840,
2025-10-16T06:08:30.504633+00:00,4.750000,-0.061180,
2025-10-16T06:08:30.509633+00:00,4.755000,-0.065740,
2025-10-16T06:08:30.514633+00:00,4.760000,-0.048640,
2025-10-16T06:08:30.519633+00:00,4.765000,-0.024700,
2025-10-16T06:08:30.524633+00:00,4.770000,-0.016340,
2025-10-16T06:08:30.529633+00:00,4.775000,-0.028880,
2025-10-16T06:08:30.534633+00:00,4.780000,-0.042560,
2025-10-16T06:08:30.539633+00:00,4.785000,-0.039900,
2025-10-16T06:08:30.544633+00:00,4.790000,-0.022040,
2025-10-16T06:08:30.549633+00:00,4.795000,-0.010640,
2025-10-16T06:08:30.554633+00:00,4.800000,-0.014820,
2025-10-16T06:08:30.559633+00:00,4.805000,-0.025840,
2025-10-16T06:08:30.564633+00:00,4.810000,-0.029640,
2025-10-16T06:08:30.569633+00:00,4.815000,-0.027740,
2025-10-16T06:08:30.574633+00:00,4.820000,-0.026220,
2025-10-16T06:08:30.579633+00:00,4.825000,-0.026220,
2025-10-16T06:08:30.584633+00:00,4.830000,-0.026600,
2025-10-16T06:08:30.589633+00:00,4.835000,-0.027360,
2025-10-16T06:08:30.594633+00:00,4.840000,-0.031160,
2025-10-16T06:08:30.599633+00:00,4.845000,-0.031920,
2025-10-16T06:08:30.604633+00:00,4.850000,-0.028120,
2025-10-16T06:08:30.609633+00:00,4.855000,-0.027360,
2025-10-16T06:08:30.614633+00:00,4.860000,-0.036480,
2025-10-16T06:08:30.619633+00:00,4.865000,-0.061180,
2025-10-16T06:08:30.624633+00:00,4.870000,-0.085880,
2025-10-16T06:08:30.629633+00:00,4.875000,-0.091960,
2025-10-16T06:08:30.634633+00:00,4.880000,-0.076760,
2025-10-16T06:08:30.639633+00:00,4.885000,-0.056620,
2025-10-16T06:08:30.644633+00:00,4.890000,-0.048640,
2025-10-16T06:08:30.649633+00:00,4.895000,-0.055100,
2025-10-16T06:08:30.654633+00:00,4.900000,-0.064220,
2025-10-16T06:08:30.659633+00:00,4.905000,-0.063840,
2025-10-16T06:08:30.664633+00:00,4.910000,-0.052440,
2025-10-16T06:08:30.669633+00:00,4.915000,-0.041800,
2025-10-16T06:08:30.674633+00:00,4.920000,-0.040660,
2025-10-16T06:08:30.679633+00:00,4.925000,-0.052060,
2025-10-16T06:08:30.684633+00:00,4.930000,-0.067640,
2025-10-16T06:08:30.689633+00:00,4.935000,-0.074860,
2025-10-16T06:08:30.694633+00:00,4.940000,-0.069160,
2025-10-16T06:08:30.699633+00:00,4.945000,-0.059660,
2025-10-16T06:08:30.704633+00:00,4.950000,-0.059280,
2025-10-16T06:08:30.709633+00:00,4.955000,-0.065360,
2025-10-16T06:08:30.714633+00:00,4.960000,-0.066500,
2025-10-16T06:08:30.719633+00:00,4.965000,-0.054720,
2025-10-16T06:08:30.724633+00:00,4.970000,-0.036860,
2025-10-16T06:08:30.729633+00:00,4.975000,-0.027360,
2025-10-16T06:08:30.734633+00:00,4.980000,-0.035340,
2025-10-16T06:08:30.739633+00:00,4.985000,-0.047880,
2025-10-16T06:08:30.744633+00:00,4.990000,-0.047880,
2025-10-16T06:08:30.749633+00:00,4.995000,-0.039900,
2025-10-16T06:08:30.754633+00:00,5.000000,-0.036860,
2025-10-16T06:08:30.759633+00:00,5.005000,-0.044840,
2025-10-16T06:08:30.764633+00:00,5.010000,-0.055100,
2025-10-16T06:08:30.769633+00:00,5.015000,-0.062320,
2025-10-16T06:08:30.774633+00:00,5.020000,-0.057760,
2025-10-16T06:08:30.779633+00:00,5.025000,-0.044460,
2025-10-16T06:08:30.784633+00:00,5.030000,-0.034960,
2025-10-16T06:08:30.789633+00:00,5.035000,-0.037240,
2025-10-16T06:08:30.794633+00:00,5.040000,-0.048260,
2025-10-16T06:08:30.799633+00:00,5.045000,-0.056240,
2025-10-16T06:08:30.804633+00:00,5.050000,-0.060420,
2025-10-16T06:08:30.809633+00:00,5.055000,-0.061180,
2025-10-16T06:08:30.814633+00:00,5.060000,-0.053960,
2025-10-16T06:08:30.819633+00:00,5.065000,-0.044460,
2025-10-16T06:08:30.824633+00:00,5.070000,-0.044460,
2025-10-16T06:08:30.829633+00:00,5.075000,-0.052820,
2025-10-16T06:08:30.834633+00:00,5.080000,-0.057760,
2025-10-16T06:08:30.839633+00:00,5.085000,-0.050540,
2025-10-16T06:08:30.844633+00:00,5.090000,-0.041800,
2025-10-16T06:08:30.849633+00:00,5.095000,-0.042560,
2025-10-16T06:08:30.854633+00:00,5.100000,-0.047500,
2025-10-16T06:08:30.859633+00:00,5.105000,-0.047500,
2025-10-16T06:08:30.864633+00:00,5.110000,-0.049400,
2025-10-16T06:08:30.869633+00:00,5.115000,-0.053960,
2025-10-16T06:08:30.874633+00:00,5.120000,-0.050160,
2025-10-16T06:08:30.879633+00:00,5.125000,-0.037620,
2025-10-16T06:08:30.884633+00:00,5.130000,-0.026220,
2025-10-16T06:08:30.889633+00:00,5.135000,-0.024320,
2025-10-16T06:08:30.894633+00:00,5.140000,-0.028120,
2025-10-16T06:08:30.899633+00:00,5.145000,-0.032300,
2025-10-16T06:08:30.904633+00:00,5.150000,-0.039900,
2025-10-16T06:08:30.909633+00:00,5.155000,-0.052060,
2025-10-16T06:08:30.914633+00:00,5.160000,-0.059660,
2025-10-16T06:08:30.919633+00:00,5.165000,-0.057000,
2025-10-16T06:08:30.924633+00:00,5.170000,-0.047120,
2025-10-16T06:08:30.929633+00:00,5.175000,-0.036480,
2025-10-16T06:08:30.934633+00:00,5.180000,-0.025460,
2025-10-16T06:08:30.939633+00:00,5.185000,-0.023940,
2025-10-16T06:08:30.944633+00:00,5.190000,-0.038380,
2025-10-16T06:08:30.949633+00:00,5.195000,-0.050920,
2025-10-16T06:08:30.954633+00:00,5.200000,-0.049400,
2025-10-16T06:08:30.959633+00:00,5.205000,-0.036480,
2025-10-16T06:08:30.964633+00:00,5.210000,-0.026980,
2025-10-16T06:08:30.969633+00:00,5.215000,-0.034200,
2025-10-16T06:08:30.974633+00:00,5.220000,-0.049020,
2025-10-16T06:08:30.979633+00:00,5.225000,-0.049400,
2025-10-16T06:08:30.984633+00:00,5.230000,-0.038000,
2025-10-16T06:08:30.989633+00:00,5.235000,-0.030020,
2025-10-16T06:08:30.994633+00:00,5.240000,-0.031920,
2025-10-16T06:08:30.999633+00:00,5.245000,-0.042180,
2025-10-16T06:08:31.004633+00:00,5.250000,-0.049780,
2025-10-16T06:08:31.009633+00:00,5.255000,-0.046360,
2025-10-16T06:08:31.014633+00:00,5.260000,-0.041040,
2025-10-16T06:08:31.019633+00:00,5.265000,-0.039140,
2025-10-16T06:08:31.024633+00:00,5.270000,-0.035720,
2025-10-16T06:08:31.029633+00:00,5.275000,-0.026600,
2025-10-16T06:08:31.034633+00:00,5.280000,-0.017860,
2025-10-16T06:08:31.039633+00:00,5.285000,-0.021660,
2025-10-16T06:08:31.044633+00:00,5.290000,-0.031540,
2025-10-16T06:08:31.049633+00:00,5.295000,-0.036860,
2025-10-16T06:08:31.054633+00:00,5.300000,-0.032300,
2025-10-16T06:08:31.059633+00:00,5.305000,-0.026220,
2025-10-16T06:08:31.064633+00:00,5.310000,-0.030400,
2025-10-16T06:08:31.069633+00:00,5.315000,-0.042560,
2025-10-16T06:08:31.074633+00:00,5.320000,-0.049400,
2025-10-16T06:08:31.079633+00:00,5.325000,-0.040660,
2025-10-16T06:08:31.084633+00:00,5.330000,-0.029260,
2025-10-16T06:08:31.089633+00:00,5.335000,-0.029640,
2025-10-16T06:08:31.094633+00:00,5.340000,-0.047120,
2025-10-16T06:08:31.099633+00:00,5.345000,-0.075620,
2025-10-16T06:08:31.104633+00:00,5.350000,-0.095000,
2025-10-16T06:08:31.109633+00:00,5.355000,-0.093100,
2025-10-16T06:08:31.114633+00:00,5.360000,-0.071060,
2025-10-16T06:08:31.119633+00:00,5.365000,-0.050540,
2025-10-16T06:08:31.124633+00:00,5.370000,-0.050920,
2025-10-16T06:08:31.129633+00:00,5.375000,-0.067640,
2025-10-16T06:08:31.134633+00:00,5.380000,-0.076760,
2025-10-16T06:08:31.139633+00:00,5.385000,-0.064220,
2025-10-16T06:08:31.144633+00:00,5.390000,-0.040280,
2025-10-16T06:08:31.149633+00:00,5.395000,-0.027360,
2025-10-16T06:08:31.154633+00:00,5.400000,-0.030020,
2025-10-16T06:08:31.159633+00:00,5.405000,-0.043700,
2025-10-16T06:08:31.164633+00:00,5.410000,-0.055100,
2025-10-16T06:08:31.169633+00:00,5.415000,-0.058140,
2025-10-16T06:08:31.174633+00:00,5.420000,-0.049780,
2025-10-16T06:08:31.179633+00:00,5.425000,-0.037240,
2025-10-16T06:08:31.184633+00:00,5.430000,-0.029640,
2025-10-16T06:08:31.189633+00:00,5.435000,-0.033440,
2025-10-16T06:08:31.194633+00:00,5.440000,-0.043700,
2025-10-16T06:08:31.199633+00:00,5.445000,-0.050540,
2025-10-16T06:08:31.204633+00:00,5.450000,-0.050920,
2025-10-16T06:08:31.209633+00:00,5.455000,-0.046740,
2025-10-16T06:08:31.214633+00:00,5.460000,-0.049400,
2025-10-16T06:08:31.219633+00:00,5.465000,-0.055100,
2025-10-16T06:08:31.224633+00:00,5.470000,-0.052820,
2025-10-16T06:08:31.229633+00:00,5.475000,-0.040660,
2025-10-16T06:08:31.234633+00:00,5.480000,-0.034580,
2025-10-16T06:08:31.239633+00:00,5.485000,-0.040660,
2025-10-16T06:08:31.244633+00:00,5.490000,-0.051680,
2025-10-16T06:08:31.249633+00:00,5.495000,-0.060800,
2025-10-16T06:08:31.254633+00:00,5.500000,-0.066500,
2025-10-16T06:08:31.259633+00:00,5.505000,-0.071820,
2025-10-16T06:08:31.264633+00:00,5.510000,-0.069160,
2025-10-16T06:08:31.269633+00:00,5.515000,-0.061940,
2025-10-16T06:08:31.274633+00:00,5.520000,-0.058520,
2025-10-16T06:08:31.279633+00:00,5.525000,-0.059660,
2025-10-16T06:08:31.284633+00:00,5.530000,-0.062700,
2025-10-16T06:08:31.289633+00:00,5.535000,-0.063080,
2025-10-16T06:08:31.294633+00:00,5.540000,-0.058520,
2025-10-16T06:08:31.299633+00:00,5.545000,-0.051680,
2025-10-16T06:08:31.304633+00:00,5.550000,-0.044460,
2025-10-16T06:08:31.309633+00:00,5.555000,-0.043700,
2025-10-16T06:08:31.314633+00:00,5.560000,-0.051300,
2025-10-16T06:08:31.319633+00:00,5.565000,-0.061560,
2025-10-16T06:08:31.324633+00:00,5.570000,-0.058520,
2025-10-16T06:08:31.329633+00:00,5.575000,-0.042560,
2025-10-16T06:08:31.334633+00:00,5.580000,-0.029640,
2025-10-16T06:08:31.339633+00:00,5.585000,-0.030780,
2025-10-16T06:08:31.344633+00:00,5.590000,-0.038760,
2025-10-16T06:08:31.349633+00:00,5.595000,-0.039900,
2025-10-16T06:08:31.354633+00:00,5.600000,-0.028500,
2025-10-16T06:08:31.359633+00:00,5.605000,-0.022040,
2025-10-16T06:08:31.364633+00:00,5.610000,-0.030400,
2025-10-16T06:08:31.369633+00:00,5.615000,-0.051300,
2025-10-16T06:08:31.374633+00:00,5.620000,-0.064220,
2025-10-16T06:08:31.379633+00:00,5.625000,-0.064600,
2025-10-16T06:08:31.384633+00:00,5.630000,-0.058900,
2025-10-16T06:08:31.389633+00:00,5.635000,-0.047880,
2025-10-16T06:08:31.394633+00:00,5.640000,-0.031160,
2025-10-16T06:08:31.399633+00:00,5.645000,-0.022040,
2025-10-16T06:08:31.404633+00:00,5.650000,-0.028120,
2025-10-16T06:08:31.409633+00:00,5.655000,-0.034960,
2025-10-16T06:08:31.414633+00:00,5.660000,-0.032300,
2025-10-16T06:08:31.419633+00:00,5.665000,-0.028120,
2025-10-16T06:08:31.424633+00:00,5.670000,-0.038000,
2025-10-16T06:08:31.429633+00:00,5.675000,-0.052820,
2025-10-16T06:08:31.434633+00:00,5.680000,-0.051300,
2025-10-16T06:08:31.439633+00:00,5.685000,-0.031160,
2025-10-16T06:08:31.444633+00:00,5.690000,-0.019380,
2025-10-16T06:08:31.449633+00:00,5.695000,-0.030780,
2025-10-16T06:08:31.454633+00:00,5.700000,-0.048640,
2025-10-16T06:08:31.459633+00:00,5.705000,-0.048640,
2025-10-16T06:08:31.464633+00:00,5.710000,-0.034580,
2025-10-16T06:08:31.469633+00:00,5.715000,-0.022800,
2025-10-16T06:08:31.474633+00:00,5.720000,-0.025080,
2025-10-16T06:08:31.479633+00:00,5.725000,-0.033820,
2025-10-16T06:08:31.484633+00:00,5.730000,-0.034580,
2025-10-16T06:08:31.489633+00:00,5.735000,-0.026980,
2025-10-16T06:08:31.494633+00:00,5.740000,-0.027360,
2025-10-16T06:08:31.499633+00:00,5.745000,-0.047880,
2025-10-16T06:08:31.504633+00:00,5.750000,-0.070680,
2025-10-16T06:08:31.509633+00:00,5.755000,-0.077900,
2025-10-16T06:08:31.514633+00:00,5.760000,-0.069920,
2025-10-16T06:08:31.519633+00:00,5.765000,-0.064220,
2025-10-16T06:08:31.524633+00:00,5.770000,-0.060040,
2025-10-16T06:08:31.529633+00:00,5.775000,-0.055100,
2025-10-16T06:08:31.534633+00:00,5.780000,-0.049400,
2025-10-16T06:08:31.539633+00:00,5.785000,-0.053200,
2025-10-16T06:08:31.544633+00:00,5.790000,-0.066880,
2025-10-16T06:08:31.549633+00:00,5.795000,-0.071440,
2025-10-16T06:08:31.554633+00:00,5.800000,-0.060800,
2025-10-16T06:08:31.559633+00:00,5.805000,-0.042940,
2025-10-16T06:08:31.564633+00:00,5.810000,-0.032300,
2025-10-16T06:08:31.569633+00:00,5.815000,-0.034200,
2025-10-16T06:08:31.574633+00:00,5.820000,-0.045220,
2025-10-16T06:08:31.579633+00:00,5.825000,-0.052440,
2025-10-16T06:08:31.584633+00:00,5.830000,-0.047120,
2025-10-16T06:08:31.589633+00:00,5.835000,-0.040280,
2025-10-16T06:08:31.594633+00:00,5.840000,-0.044460,
2025-10-16T06:08:31.599633+00:00,5.845000,-0.053200,
2025-10-16T06:08:31.604633+00:00,5.850000,-0.049780,
2025-10-16T06:08:31.609633+00:00,5.855000,-0.038000,
2025-10-16T06:08:31.614633+00:00,5.860000,-0.031160,
2025-10-16T06:08:31.619633+00:00,5.865000,-0.044460,
2025-10-16T06:08:31.624633+00:00,5.870000,-0.061560,
2025-10-16T06:08:31.629633+00:00,5.875000,-0.055100,
2025-10-16T06:08:31.634633+00:00,5.880000,-0.027360,
2025-10-16T06:08:31.639633+00:00,5.885000,-0.010640,
2025-10-16T06:08:31.644633+00:00,5.890000,-0.021280,
2025-10-16T06:08:31.649633+00:00,5.895000,-0.043700,
2025-10-16T06:08:31.654633+00:00,5.900000,-0.055100,
2025-10-16T06:08:31.659633+00:00,5.905000,-0.053960,
2025-10-16T06:08:31.664633+00:00,5.910000,-0.045220,
2025-10-16T06:08:31.669633+00:00,5.915000,-0.034200,
2025-10-16T06:08:31.674633+00:00,5.920000,-0.023940,
2025-10-16T06:08:31.679633+00:00,5.925000,-0.022420,
2025-10-16T06:08:31.684633+00:00,5.930000,-0.038380,
2025-10-16T06:08:31.689633+00:00,5.935000,-0.052820,
2025-10-16T06:08:31.694633+00:00,5.940000,-0.051680,
2025-10-16T06:08:31.699633+00:00,5.945000,-0.038000,
2025-10-16T06:08:31.704633+00:00,5.950000,-0.031160,
2025-10-16T06:08:31.709633+00:00,5.955000,-0.034580,
2025-10-16T06:08:31.714633+00:00,5.960000,-0.037620,
2025-10-16T06:08:31.719633+00:00,5.965000,-0.042940,
2025-10-16T06:08:31.724633+00:00,5.970000,-0.051300,
2025-10-16T06:08:31.729633+00:00,5.975000,-0.053580,
2025-10-16T06:08:31.734633+00:00,5.980000,-0.038760,
2025-10-16T06:08:31.739633+00:00,5.985000,-0.022040,
2025-10-16T06:08:31.744633+00:00,5.990000,-0.020140,
2025-10-16T06:08:31.749633+00:00,5.995000,-0.034580,
2025-10-16T06:08:31.754633+00:00,6.000000,-0.050540,
2025-10-16T06:08:31.759633+00:00,6.005000,-0.054720,
2025-10-16T06:08:31.764633+00:00,6.010000,-0.054720,
2025-10-16T06:08:31.769633+00:00,6.015000,-0.057380,
2025-10-16T06:08:31.774633+00:00,6.020000,-0.052060,
2025-10-16T06:08:31.779633+00:00,6.025000,-0.039520,
2025-10-16T06:08:31.784633+00:00,6.030000,-0.038000,
2025-10-16T06:08:31.789633+00:00,6.035000,-0.049780,
2025-10-16T06:08:31.794633+00:00,6.040000,-0.057000,
2025-10-16T06:08:31.799633+00:00,6.045000,-0.048260,
2025-10-16T06:08:31.804633+00:00,6.050000,-0.031920,
2025-10-16T06:08:31.809633+00:00,6.055000,-0.028120,
2025-10-16T06:08:31.814633+00:00,6.060000,-0.039520,
2025-10-16T06:08:31.819633+00:00,6.065000,-0.051300,
2025-10-16T06:08:31.824633+00:00,6.070000,-0.048260,
2025-10-16T06:08:31.829633+00:00,6.075000,-0.036860,
2025-10-16T06:08:31.834633+00:00,6.080000,-0.027740,
2025-10-16T06:08:31.839633+00:00,6.085000,-0.028500,
2025-10-16T06:08:31.844633+00:00,6.090000,-0.035340,
2025-10-16T06:08:31.849633+00:00,6.095000,-0.040280,
2025-10-16T06:08:31.854633+00:00,6.100000,-0.043320,
2025-10-16T06:08:31.859633+00:00,6.105000,-0.047500,
2025-10-16T06:08:31.864633+00:00,6.110000,-0.049780,
2025-10-16T06:08:31.869633+00:00,6.115000,-0.047500,
2025-10-16T06:08:31.874633+00:00,6.120000,-0.042560,
2025-10-16T06:08:31.879633+00:00,6.125000,-0.038380,
2025-10-16T06:08:31.884633+00:00,6.130000,-0.038000,
2025-10-16T06:08:31.889633+00:00,6.135000,-0.036480,
2025-10-16T06:08:31.894633+00:00,6.140000,-0.036100,
2025-10-16T06:08:31.899633+00:00,6.145000,-0.042560,
2025-10-16T06:08:31.904633+00:00,6.150000,-0.054340,
2025-10-16T06:08:31.909633+00:00,6.155000,-0.056620,
2025-10-16T06:08:31.914633+00:00,6.160000,-0.043320,
2025-10-16T06:08:31.919633+00:00,6.165000,-0.023560,
2025-10-16T06:08:31.924633+00:00,6.170000,-0.019760,
2025-10-16T06:08:31.929633+00:00,6.175000,-0.031540,
2025-10-16T06:08:31.934633+00:00,6.180000,-0.040280,
2025-10-16T06:08:31.939633+00:00,6.185000,-0.034580,
2025-10-16T06:08:31.944633+00:00,6.190000,-0.023560,
2025-10-16T06:08:31.949633+00:00,6.195000,-0.018620,
2025-10-16T06:08:31.954633+00:00,6.200000,-0.026980,
2025-10-16T06:08:31.959633+00:00,6.205000,-0.038000,
2025-10-16T06:08:31.964633+00:00,6.210000,-0.041420,
2025-10-16T06:08:31.969633+00:00,6.215000,-0.032300,
2025-10-16T06:08:31.974633+00:00,6.220000,-0.019760,
2025-10-16T06:08:31.979633+00:00,6.225000,-0.012920,
2025-10-16T06:08:31.984633+00:00,6.230000,-0.019000,
2025-10-16T06:08:31.989633+00:00,6.235000,-0.031540,
2025-10-16T06:08:31.994633+00:00,6.240000,-0.038760,
2025-10-16T06:08:31.999633+00:00,6.245000,-0.041040,
2025-10-16T06:08:32.004633+00:00,6.250000,-0.040660,
2025-10-16T06:08:32.009633+00:00,6.255000,-0.038760,
2025-10-16T06:08:32.014633+00:00,6.260000,-0.042940,
2025-10-16T06:08:32.019633+00:00,6.265000,-0.057000,
2025-10-16T06:08:32.024633+00:00,6.270000,-0.069540,
2025-10-16T06:08:32.029633+00:00,6.275000,-0.070300,
2025-10-16T06:08:32.034633+00:00,6.280000,-0.061560,
2025-10-16T06:08:32.039633+00:00,6.285000,-0.056620,
2025-10-16T06:08:32.044633+00:00,6.290000,-0.052060,
2025-10-16T06:08:32.049633+00:00,6.295000,-0.041420,
2025-10-16T06:08:32.054633+00:00,6.300000,-0.036860,
2025-10-16T06:08:32.059633+00:00,6.305000,-0.050920,
2025-10-16T06:08:32.064633+00:00,6.310000,-0.066500,
2025-10-16T06:08:32.069633+00:00,6.315000,-0.065360,
2025-10-16T06:08:32.074633+00:00,6.320000,-0.047120,
2025-10-16T06:08:32.079633+00:00,6.325000,-0.031160,
2025-10-16T06:08:32.084633+00:00,6.330000,-0.031160,
2025-10-16T06:08:32.089633+00:00,6.335000,-0.046360,
2025-10-16T06:08:32.094633+00:00,6.340000,-0.064600,
2025-10-16T06:08:32.099633+00:00,6.345000,-0.072960,
2025-10-16T06:08:32.104633+00:00,6.350000,-0.069160,
2025-10-16T06:08:32.109633+00:00,6.355000,-0.052060,
2025-10-16T06:08:32.114633+00:00,6.360000,-0.040280,
2025-10-16T06:08:32.119633+00:00,6.365000,-0.044460,
2025-10-16T06:08:32.124633+00:00,6.370000,-0.053200,
2025-10-16T06:08:32.129633+00:00,6.375000,-0.050920,
2025-10-16T06:08:32.134633+00:00,6.380000,-0.043320,
2025-10-16T06:08:32.139633+00:00,6.385000,-0.038380,
2025-10-16T06:08:32.144633+00:00,6.390000,-0.038380,
2025-10-16T06:08:32.149633+00:00,6.395000,-0.042180,
2025-10-16T06:08:32.154633+00:00,6.400000,-0.045600,
2025-10-16T06:08:32.159633+00:00,6.405000,-0.047500,
2025-10-16T06:08:32.164633+00:00,6.410000,-0.044080,
2025-10-16T06:08:32.169633+00:00,6.415000,-0.037620,
2025-10-16T06:08:32.174633+00:00,6.420000,-0.039520,
2025-10-16T06:08:32.179633+00:00,6.425000,-0.049400,
2025-10-16T06:08:32.184633+00:00,6.430000,-0.059660,
2025-10-16T06:08:32.189633+00:00,6.435000,-0.061180,
2025-10-16T06:08:32.194633+00:00,6.440000,-0.054340,
2025-10-16T06:08:32.199633+00:00,6.445000,-0.041040,
2025-10-16T06:08:32.204633+00:00,6.450000,-0.032680,
2025-10-16T06:08:32.209633+00:00,6.455000,-0.032300,
2025-10-16T06:08:32.214633+00:00,6.460000,-0.031540,
2025-10-16T06:08:32.219633+00:00,6.465000,-0.028120,
2025-10-16T06:08:32.224633+00:00,6.470000,-0.027740,
2025-10-16T06:08:32.229633+00:00,6.475000,-0.032300,
2025-10-16T06:08:32.234633+00:00,6.480000,-0.042560,
2025-10-16T06:08:32.239633+00:00,6.485000,-0.055860,
2025-10-16T06:08:32.244633+00:00,6.490000,-0.062320,
2025-10-16T06:08:32.249633+00:00,6.495000,-0.060420,
2025-10-16T06:08:32.254633+00:00,6.500000,-0.052440,
2025-10-16T06:08:32.259633+00:00,6.505000,-0.041420,
2025-10-16T06:08:32.264633+00:00,6.510000,-0.032680,
2025-10-16T06:08:32.269633+00:00,6.515000,-0.031920,
2025-10-16T06:08:32.274633+00:00,6.520000,-0.034580,
2025-10-16T06:08:32.279633+00:00,6.525000,-0.034580,
2025-10-16T06:08:32.284633+00:00,6.530000,-0.034200,
2025-10-16T06:08:32.289633+00:00,6.535000,-0.036100,
2025-10-16T06:08:32.294633+00:00,6.540000,-0.036100,
2025-10-16T06:08:32.299633+00:00,6.545000,-0.033820,
2025-10-16T06:08:32.304633+00:00,6.550000,-0.036100,
2025-10-16T06:08:32.309633+00:00,6.555000,-0.042940,
2025-10-16T06:08:32.314633+00:00,6.560000,-0.047120,
2025-10-16T06:08:32.319633+00:00,6.565000,-0.041040,
2025-10-16T06:08:32.324633+00:00,6.570000,-0.027740,
2025-10-16T06:08:32.329633+00:00,6.575000,-0.014440,
2025-10-16T06:08:32.334633+00:00,6.580000,-0.017100,
2025-10-16T06:08:32.339633+00:00,6.585000,-0.033060,
2025-10-16T06:08:32.344633+00:00,6.590000,-0.048260,
2025-10-16T06:08:32.349633+00:00,6.595000,-0.049020,
2025-10-16T06:08:32.354633+00:00,6.600000,-0.040280,
2025-10-16T06:08:32.359633+00:00,6.605000,-0.035720,
2025-10-16T06:08:32.364633+00:00,6.610000,-0.038380,
2025-10-16T06:08:32.369633+00:00,6.615000,-0.041420,
2025-10-16T06:08:32.374633+00:00,6.620000,-0.033060,
2025-10-16T06:08:32.379633+00:00,6.625000,-0.025840,
2025-10-16T06:08:32.384633+00:00,6.630000,-0.038380,
2025-10-16T06:08:32.389633+00:00,6.635000,-0.055860,
2025-10-16T06:08:32.394633+00:00,6.640000,-0.056240,
2025-10-16T06:08:32.399633+00:00,6.645000,-0.045220,
2025-10-16T06:08:32.404633+00:00,6.650000,-0.043700,
2025-10-16T06:08:32.409633+00:00,6.655000,-0.053580,
2025-10-16T06:08:32.414633+00:00,6.660000,-0.058520,
2025-10-16T06:08:32.419633+00:00,6.665000,-0.047500,
2025-10-16T06:08:32.424633+00:00,6.670000,-0.028120,
2025-10-16T06:08:32.429633+00:00,6.675000,-0.013680,
2025-10-16T06:08:32.434633+00:00,6.680000,-0.008360,
2025-10-16T06:08:32.439633+00:00,6.685000,-0.012540,
2025-10-16T06:08:32.444633+00:00,6.690000,-0.019760,
2025-10-16T06:08:32.449633+00:00,6.695000,-0.025460,
2025-10-16T06:08:32.454633+00:00,6.700000,-0.025080,
2025-10-16T06:08:32.459633+00:00,6.705000,-0.026220,
2025-10-16T06:08:32.464633+00:00,6.710000,-0.036100,
2025-10-16T06:08:32.469633+00:00,6.715000,-0.048640,
2025-10-16T06:08:32.474633+00:00,6.720000,-0.052440,
2025-10-16T06:08:32.479633+00:00,6.725000,-0.045600,
2025-10-16T06:08:32.484633+00:00,6.730000,-0.040280,
2025-10-16T06:08:32.489633+00:00,6.735000,-0.041800,
2025-10-16T06:08:32.494633+00:00,6.740000,-0.044080,
2025-10-16T06:08:32.499633+00:00,6.745000,-0.043320,
2025-10-16T06:08:32.504633+00:00,6.750000,-0.035720,
2025-10-16T06:08:32.509633+00:00,6.755000,-0.034580,
2025-10-16T06:08:32.514633+00:00,6.760000,-0.043320,
2025-10-16T06:08:32.519633+00:00,6.765000,-0.047500,
2025-10-16T06:08:32.524633+00:00,6.770000,-0.032300,
2025-10-16T06:08:32.529633+00:00,6.775000,-0.015960,
2025-10-16T06:08:32.534633+00:00,6.780000,-0.023180,
2025-10-16T06:08:32.539633+00:00,6.785000,-0.049780,
2025-10-16T06:08:32.544633+00:00,6.790000,-0.063840,
2025-10-16T06:08:32.549633+00:00,6.795000,-0.050540,
2025-10-16T06:08:32.554633+00:00,6.800000,-0.029640,
2025-10-16T06:08:32.559633+00:00,6.805000,-0.025840,
2025-10-16T06:08:32.564633+00:00,6.810000,-0.034580,
2025-10-16T06:08:32.569633+00:00,6.815000,-0.040660,
2025-10-16T06:08:32.574633+00:00,6.820000,-0.037620,
2025-10-16T06:08:32.579633+00:00,6.825000,-0.027740,
2025-10-16T06:08:32.584633+00:00,6.830000,-0.019380,
2025-10-16T06:08:32.589633+00:00,6.835000,-0.015960,
2025-10-16T06:08:32.594633+00:00,6.840000,-0.022420,
2025-10-16T06:08:32.599633+00:00,6.845000,-0.038000,
2025-10-16T06:08:32.604633+00:00,6.850000,-0.048260,
2025-10-16T06:08:32.609633+00:00,6.855000,-0.040280,
2025-10-16T06:08:32.614633+00:00,6.860000,-0.025080,
2025-10-16T06:08:32.619633+00:00,6.865000,-0.024320,
2025-10-16T06:08:32.624633+00:00,6.870000,-0.039900,
2025-10-16T06:08:32.629633+00:00,6.875000,-0.050160,
2025-10-16T06:08:32.634633+00:00,6.880000,-0.040660,
2025-10-16T06:08:32.639633+00:00,6.885000,-0.019380,
2025-10-16T06:08:32.644633+00:00,6.890000,-0.008740,
2025-10-16T06:08:32.649633+00:00,6.895000,-0.018620,
2025-10-16T06:08:32.654633+00:00,6.900000,-0.038760,
2025-10-16T06:08:32.659633+00:00,6.905000,-0.050920,
2025-10-16T06:08:32.664633+00:00,6.910000,-0.044080,
2025-10-16T06:08:32.669633+00:00,6.915000,-0.033440,
2025-10-16T06:08:32.674633+00:00,6.920000,-0.027360,
2025-10-16T06:08:32.679633+00:00,6.925000,-0.028880,
2025-10-16T06:08:32.684633+00:00,6.930000,-0.027740,
2025-10-16T06:08:32.689633+00:00,6.935000,-0.023560,
2025-10-16T06:08:32.694633+00:00,6.940000,-0.022420,
2025-10-16T06:08:32.699633+00:00,6.945000,-0.024320,
2025-10-16T06:08:32.704633+00:00,6.950000,-0.023940,
2025-10-16T06:08:32.709633+00:00,6.955000,-0.023560,
2025-10-16T06:08:32.714633+00:00,6.960000,-0.027360,
2025-10-16T06:08:32.719633+00:00,6.965000,-0.032680,
2025-10-16T06:08:32.724633+00:00,6.970000,-0.033060,
2025-10-16T06:08:32.729633+00:00,6.975000,-0.032680,
2025-10-16T06:08:32.734633+00:00,6.980000,-0.039520,
2025-10-16T06:08:32.739633+00:00,6.985000,-0.047500,
2025-10-16T06:08:32.744633+00:00,6.990000,-0.040280,
2025-10-16T06:08:32.749633+00:00,6.995000,-0.026220,
2025-10-16T06:08:32.754633+00:00,7.000000,-0.025460,
2025-10-16T06:08:32.759633+00:00,7.005000,-0.034200,
2025-10-16T06:08:32.764633+00:00,7.010000,-0.038760,
2025-10-16T06:08:32.769633+00:00,7.015000,-0.031540,
2025-10-16T06:08:32.774633+00:00,7.020000,-0.029260,
2025-10-16T06:08:32.779633+00:00,7.025000,-0.036100,
2025-10-16T06:08:32.784633+00:00,7.030000,-0.045980,
2025-10-16T06:08:32.789633+00:00,7.035000,-0.045600,
2025-10-16T06:08:32.794633+00:00,7.040000,-0.036860,
2025-10-16T06:08:32.799633+00:00,7.045000,-0.031920,
2025-10-16T06:08:32.804633+00:00,7.050000,-0.032300,
2025-10-16T06:08:32.809633+00:00,7.055000,-0.034960,
2025-10-16T06:08:32.814633+00:00,7.060000,-0.043700,
2025-10-16T06:08:32.819633+00:00,7.065000,-0.052820,
2025-10-16T06:08:32.824633+00:00,7.070000,-0.054720,
2025-10-16T06:08:32.829633+00:00,7.075000,-0.048260,
2025-10-16T06:08:32.834633+00:00,7.080000,-0.042560,
2025-10-16T06:08:32.839633+00:00,7.085000,-0.041800,
2025-10-16T06:08:32.844633+00:00,7.090000,-0.036480,
2025-10-16T06:08:32.849633+00:00,7.095000,-0.031540,
2025-10-16T06:08:32.854633+00:00,7.100000,-0.035340,
2025-10-16T06:08:32.859633+00:00,7.105000,-0.047500,
2025-10-16T06:08:32.864633+00:00,7.110000,-0.056620,
2025-10-16T06:08:32.869633+00:00,7.115000,-0.057380,
2025-10-16T06:08:32.874633+00:00,7.120000,-0.055480,
2025-10-16T06:08:32.879633+00:00,7.125000,-0.058520,
2025-10-16T06:08:32.884633+00:00,7.130000,-0.053960,
2025-10-16T06:08:32.889633+00:00,7.135000,-0.043700,
2025-10-16T06:08:32.894633+00:00,7.140000,-0.033060,
2025-10-16T06:08:32.899633+00:00,7.145000,-0.030780,
2025-10-16T06:08:32.904633+00:00,7.150000,-0.033820,
2025-10-16T06:08:32.909633+00:00,7.155000,-0.033440,
2025-10-16T06:08:32.914633+00:00,7.160000,-0.030780,
2025-10-16T06:08:32.919633+00:00,7.165000,-0.030400,
2025-10-16T06:08:32.924633+00:00,7.170000,-0.037240,
2025-10-16T06:08:32.929633+00:00,7.175000,-0.046360,
2025-10-16T06:08:32.934633+00:00,7.180000,-0.052440,
2025-10-16T06:08:32.939633+00:00,7.185000,-0.056240,
2025-10-16T06:08:32.944633+00:00,7.190000,-0.058520,
2025-10-16T06:08:32.949633+00:00,7.195000,-0.056620,
2025-10-16T06:08:32.954633+00:00,7.200000,-0.043700,
2025-10-16T06:08:32.959633+00:00,7.205000,-0.020900,
2025-10-16T06:08:32.964633+00:00,7.210000,-0.014440,
2025-10-16T06:08:32.969633+00:00,7.215000,-0.032680,
2025-10-16T06:08:32.974633+00:00,7.220000,-0.057000,
2025-10-16T06:08:32.979633+00:00,7.225000,-0.064600,
2025-10-16T06:08:32.984633+00:00,7.230000,-0.052060,
2025-10-16T06:08:32.989633+00:00,7.235000,-0.032300,
2025-10-16T06:08:32.994633+00:00,7.240000,-0.022420,
2025-10-16T06:08:32.999633+00:00,7.245000,-0.026220,
2025-10-16T06:08:33.004633+00:00,7.250000,-0.032680,
2025-10-16T06:08:33.009633+00:00,7.255000,-0.027740,
2025-10-16T06:08:33.014633+00:00,7.260000,-0.017100,
2025-10-16T06:08:33.019633+00:00,7.265000,-0.016340,
2025-10-16T06:08:33.024633+00:00,7.270000,-0.029640,
2025-10-16T06:08:33.029633+00:00,7.275000,-0.041040,
2025-10-16T06:08:33.034633+00:00,7.280000,-0.037240,
2025-10-16T06:08:33.039633+00:00,7.285000,-0.030400,
2025-10-16T06:08:33.044633+00:00,7.290000,-0.033440,
2025-10-16T06:08:33.049633+00:00,7.295000,-0.044460,
2025-10-16T06:08:33.054633+00:00,7.300000,-0.050540,
2025-10-16T06:08:33.059633+00:00,7.305000,-0.049400,
2025-10-16T06:08:33.064633+00:00,7.310000,-0.047120,
2025-10-16T06:08:33.069633+00:00,7.315000,-0.047880,
2025-10-16T06:08:33.074633+00:00,7.320000,-0.046360,
2025-10-16T06:08:33.079633+00:00,7.325000,-0.041420,
2025-10-16T06:08:33.084633+00:00,7.330000,-0.036100,
2025-10-16T06:08:33.089633+00:00,7.335000,-0.038000,
2025-10-16T06:08:33.094633+00:00,7.340000,-0.042180,
2025-10-16T06:08:33.099633+00:00,7.345000,-0.044080,
2025-10-16T06:08:33.104633+00:00,7.350000,-0.042180,
2025-10-16T06:08:33.109633+00:00,7.355000,-0.036860,
2025-10-16T06:08:33.114633+00:00,7.360000,-0.029260,
2025-10-16T06:08:33.119633+00:00,7.365000,-0.028500,
2025-10-16T06:08:33.124633+00:00,7.370000,-0.032680,
2025-10-16T06:08:33.129633+00:00,7.375000,-0.038000,
2025-10-16T06:08:33.134633+00:00,7.380000,-0.040660,
2025-10-16T06:08:33.139633+00:00,7.385000,-0.042180,
2025-10-16T06:08:33.144633+00:00,7.390000,-0.039900,
2025-10-16T06:08:33.149633+00:00,7.395000,-0.033440,
2025-10-16T06:08:33.154633+00:00,7.400000,-0.032680,
2025-10-16T06:08:33.159633+00:00,7.405000,-0.038760,
2025-10-16T06:08:33.164633+00:00,7.410000,-0.045980,
2025-10-16T06:08:33.169633+00:00,7.415000,-0.037240,
2025-10-16T06:08:33.174633+00:00,7.420000,-0.014060,
2025-10-16T06:08:33.179633+00:00,7.425000,-0.002660,
2025-10-16T06:08:33.184633+00:00,7.430000,-0.017480,
2025-10-16T06:08:33.189633+00:00,7.435000,-0.037240,
2025-10-16T06:08:33.194633+00:00,7.440000,-0.037240,
2025-10-16T06:08:33.199633+00:00,7.445000,-0.027360,
2025-10-16T06:08:33.204633+00:00,7.450000,-0.028500,
2025-10-16T06:08:33.209633+00:00,7.455000,-0.044080,
2025-10-16T06:08:33.214633+00:00,7.460000,-0.058520,
2025-10-16T06:08:33.219633+00:00,7.465000,-0.059660,
2025-10-16T06:08:33.224633+00:00,7.470000,-0.051680,
2025-10-16T06:08:33.229633+00:00,7.475000,-0.044080,
2025-10-16T06:08:33.234633+00:00,7.480000,-0.044840,
2025-10-16T06:08:33.239633+00:00,7.485000,-0.053200,
2025-10-16T06:08:33.244633+00:00,7.490000,-0.065360,
2025-10-16T06:08:33.249633+00:00,7.495000,-0.077140,
2025-10-16T06:08:33.254633+00:00,7.500000,-0.082840,
2025-10-16T06:08:33.259633+00:00,7.505000,-0.081320,
2025-10-16T06:08:33.264633+00:00,7.510000,-0.069540,
2025-10-16T06:08:33.269633+00:00,7.515000,-0.052060,
2025-10-16T06:08:33.274633+00:00,7.520000,-0.039900,
2025-10-16T06:08:33.279633+00:00,7.525000,-0.046360,
2025-10-16T06:08:33.284633+00:00,7.530000,-0.065360,
2025-10-16T06:08:33.289633+00:00,7.535000,-0.077140,
2025-10-16T06:08:33.294633+00:00,7.540000,-0.074100,
2025-10-16T06:08:33.299633+00:00,7.545000,-0.063840,
2025-10-16T06:08:33.304633+00:00,7.550000,-0.055100,
2025-10-16T06:08:33.309633+00:00,7.555000,-0.051300,
2025-10-16T06:08:33.314633+00:00,7.560000,-0.046360,
2025-10-16T06:08:33.319633+00:00,7.565000,-0.045600,
2025-10-16T06:08:33.324633+00:00,7.570000,-0.046360,
2025-10-16T06:08:33.329633+00:00,7.575000,-0.050160,
2025-10-16T06:08:33.334633+00:00,7.580000,-0.050540,
2025-10-16T06:08:33.339633+00:00,7.585000,-0.038000,
2025-10-16T06:08:33.344633+00:00,7.590000,-0.021660,
2025-10-16T06:08:33.349633+00:00,7.595000,-0.011780,
2025-10-16T06:08:33.354633+00:00,7.600000,-0.011780,
2025-10-16T06:08:33.359633+00:00,7.605000,-0.019760,
2025-10-16T06:08:33.364633+00:00,7.610000,-0.028120,
2025-10-16T06:08:33.369633+00:00,7.615000,-0.034960,
2025-10-16T06:08:33.374633+00:00,7.620000,-0.042180,
2025-10-16T06:08:33.379633+00:00,7.625000,-0.048640,
2025-10-16T06:08:33.384633+00:00,7.630000,-0.046740,
2025-10-16T06:08:33.389633+00:00,7.635000,-0.041420,
2025-10-16T06:08:33.394633+00:00,7.640000,-0.043320,
2025-10-16T06:08:33.399633+00:00,7.645000,-0.052060,
2025-10-16T06:08:33.404633+00:00,7.650000,-0.054720,
2025-10-16T06:08:33.409633+00:00,7.655000,-0.044460,
2025-10-16T06:08:33.414633+00:00,7.660000,-0.028880,
2025-10-16T06:08:33.419633+00:00,7.665000,-0.019000,
2025-10-16T06:08:33.424633+00:00,7.670000,-0.025080,
2025-10-16T06:08:33.429633+00:00,7.675000,-0.036480,
2025-10-16T06:08:33.434633+00:00,7.680000,-0.044460,
2025-10-16T06:08:33.439633+00:00,7.685000,-0.045220,
2025-10-16T06:08:33.444633+00:00,7.690000,-0.045600,
2025-10-16T06:08:33.449633+00:00,7.695000,-0.044840,
2025-10-16T06:08:33.454633+00:00,7.700000,-0.040660,
2025-10-16T06:08:33.459633+00:00,7.705000,-0.040280,
2025-10-16T06:08:33.464633+00:00,7.710000,-0.044460,
2025-10-16T06:08:33.469633+00:00,7.715000,-0.043700,
2025-10-16T06:08:33.474633+00:00,7.720000,-0.038380,
2025-10-16T06:08:33.479633+00:00,7.725000,-0.032680,
2025-10-16T06:08:33.484633+00:00,7.730000,-0.031540,
2025-10-16T06:08:33.489633+00:00,7.735000,-0.037620,
2025-10-16T06:08:33.494633+00:00,7.740000,-0.044080,
2025-10-16T06:08:33.499633+00:00,7.745000,-0.045600,
2025-10-16T06:08:33.504633+00:00,7.750000,-0.042940,
2025-10-16T06:08:33.509633+00:00,7.755000,-0.040660,
2025-10-16T06:08:33.514633+00:00,7.760000,-0.041800,
2025-10-16T06:08:33.519633+00:00,7.765000,-0.047120,
2025-10-16T06:08:33.524633+00:00,7.770000,-0.044460,
2025-10-16T06:08:33.529633+00:00,7.775000,-0.040660,
2025-10-16T06:08:33.534633+00:00,7.780000,-0.046740,
2025-10-16T06:08:33.539633+00:00,7.785000,-0.061940,
2025-10-16T06:08:33.544633+00:00,7.790000,-0.059280,
2025-10-16T06:08:33.549633+00:00,7.795000,-0.040660,
2025-10-16T06:08:33.554633+00:00,7.800000,-0.032300,
2025-10-16T06:08:33.559633+00:00,7.805000,-0.048260,
2025-10-16T06:08:33.564633+00:00,7.810000,-0.064980,
2025-10-16T06:08:33.569633+00:00,7.815000,-0.057380,
2025-10-16T06:08:33.574633+00:00,7.820000,-0.037240,
2025-10-16T06:08:33.579633+00:00,7.825000,-0.033820,
2025-10-16T06:08:33.584633+00:00,7.830000,-0.044080,
2025-10-16T06:08:33.589633+00:00,7.835000,-0.056620,
2025-10-16T06:08:33.594633+00:00,7.840000,-0.055860,
2025-10-16T06:08:33.599633+00:00,7.845000,-0.044080,
2025-10-16T06:08:33.604633+00:00,7.850000,-0.028120,
2025-10-16T06:08:33.609633+00:00,7.855000,-0.022040,
2025-10-16T06:08:33.614633+00:00,7.860000,-0.032300,
2025-10-16T06:08:33.619633+00:00,7.865000,-0.047500,
2025-10-16T06:08:33.624633+00:00,7.870000,-0.052060,
2025-10-16T06:08:33.629633+00:00,7.875000,-0.042560,
2025-10-16T06:08:33.634633+00:00,7.880000,-0.025840,
2025-10-16T06:08:33.639633+00:00,7.885000,-0.021280,
2025-10-16T06:08:33.644633+00:00,7.890000,-0.033440,
2025-10-16T06:08:33.649633+00:00,7.895000,-0.052440,
2025-10-16T06:08:33.654633+00:00,7.900000,-0.057380,
2025-10-16T06:08:33.659633+00:00,7.905000,-0.040280,
2025-10-16T06:08:33.664633+00:00,7.910000,-0.015580,
2025-10-16T06:08:33.669633+00:00,7.915000,-0.013300,
2025-10-16T06:08:33.674633+00:00,7.920000,-0.033060,
2025-10-16T06:08:33.679633+00:00,7.925000,-0.054340,
2025-10-16T06:08:33.684633+00:00,7.930000,-0.060040,
2025-10-16T06:08:33.689633+00:00,7.935000,-0.048640,
2025-10-16T06:08:33.694633+00:00,7.940000,-0.029260,
2025-10-16T06:08:33.699633+00:00,7.945000,-0.015960,
2025-10-16T06:08:33.704633+00:00,7.950000,-0.019380,
2025-10-16T06:08:33.709633+00:00,7.955000,-0.033820,
2025-10-16T06:08:33.714633+00:00,7.960000,-0.038380,
2025-10-16T06:08:33.719633+00:00,7.965000,-0.030400,
2025-10-16T06:08:33.724633+00:00,7.970000,-0.026980,
2025-10-16T06:08:33.729633+00:00,7.975000,-0.036860,
2025-10-16T06:08:33.734633+00:00,7.980000,-0.041040,
2025-10-16T06:08:33.739633+00:00,7.985000,-0.031540,
2025-10-16T06:08:33.744633+00:00,7.990000,-0.022040,
2025-10-16T06:08:33.749633+00:00,7.995000,-0.021280,
2025-10-16T06:08:33.754633+00:00,8.000000,-0.028120,
2025-10-16T06:08:33.759633+00:00,8.005000,-0.032680,
2025-10-16T06:08:33.764633+00:00,8.010000,-0.039900,
2025-10-16T06:08:33.769633+00:00,8.015000,-0.050920,
2025-10-16T06:08:33.774633+00:00,8.020000,-0.058900,
2025-10-16T06:08:33.779633+00:00,8.025000,-0.054720,
2025-10-16T06:08:33.784633+00:00,8.030000,-0.048260,
2025-10-16T06:08:33.789633+00:00,8.035000,-0.054720,
2025-10-16T06:08:33.794633+00:00,8.040000,-0.062320,
2025-10-16T06:08:33.799633+00:00,8.045000,-0.057380,
2025-10-16T06:08:33.804633+00:00,8.050000,-0.044460,
2025-10-16T06:08:33.809633+00:00,8.055000,-0.030780,
2025-10-16T06:08:33.814633+00:00,8.060000,-0.028120,
2025-10-16T06:08:33.819633+00:00,8.065000,-0.033820,
2025-10-16T06:08:33.824633+00:00,8.070000,-0.040280,
2025-10-16T06:08:33.829633+00:00,8.075000,-0.041420,
2025-10-16T06:08:33.834633+00:00,8.080000,-0.038760,
2025-10-16T06:08:33.839633+00:00,8.085000,-0.035340,
2025-10-16T06:08:33.844633+00:00,8.090000,-0.028880,
2025-10-16T06:08:33.849633+00:00,8.095000,-0.025840,
2025-10-16T06:08:33.854633+00:00,8.100000,-0.029260,
2025-10-16T06:08:33.859633+00:00,8.105000,-0.038760,
2025-10-16T06:08:33.864633+00:00,8.110000,-0.047880,
2025-10-16T06:08:33.869633+00:00,8.115000,-0.049020,
2025-10-16T06:08:33.874633+00:00,8.120000,-0.040660,
2025-10-16T06:08:33.879633+00:00,8.125000,-0.039520,
2025-10-16T06:08:33.884633+00:00,8.130000,-0.045980,
2025-10-16T06:08:33.889633+00:00,8.135000,-0.047120,
2025-10-16T06:08:33.894633+00:00,8.140000,-0.036860,
2025-10-16T06:08:33.899633+00:00,8.145000,-0.027740,
2025-10-16T06:08:33.904633+00:00,8.150000,-0.030780,
2025-10-16T06:08:33.909633+00:00,8.155000,-0.044080,
2025-10-16T06:08:33.914633+00:00,8.160000,-0.056240,
2025-10-16T06:08:33.919633+00:00,8.165000,-0.057380,
2025-10-16T06:08:33.924633+00:00,8.170000,-0.050160,
2025-10-16T06:08:33.929633+00:00,8.175000,-0.040660,
2025-10-16T06:08:33.934633+00:00,8.180000,-0.032300,
2025-10-16T06:08:33.939633+00:00,8.185000,-0.036480,
2025-10-16T06:08:33.944633+00:00,8.190000,-0.053200,
2025-10-16T06:08:33.949633+00:00,8.195000,-0.069540,
2025-10-16T06:08:33.954633+00:00,8.200000,-0.069160,
2025-10-16T06:08:33.959633+00:00,8.205000,-0.051680,
2025-10-16T06:08:33.964633+00:00,8.210000,-0.031540,
2025-10-16T06:08:33.969633+00:00,8.215000,-0.018240,
2025-10-16T06:08:33.974633+00:00,8.220000,-0.020520,
2025-10-16T06:08:33.979633+00:00,8.225000,-0.035720,
2025-10-16T06:08:33.984633+00:00,8.230000,-0.057000,
2025-10-16T06:08:33.989633+00:00,8.235000,-0.065360,
2025-10-16T06:08:33.994633+00:00,8.240000,-0.051680,
2025-10-16T06:08:33.999633+00:00,8.245000,-0.029640,
2025-10-16T06:08:34.004633+00:00,8.250000,-0.020140,
2025-10-16T06:08:34.009633+00:00,8.255000,-0.026600,
2025-10-16T06:08:34.014633+00:00,8.260000,-0.036860,
2025-10-16T06:08:34.019633+00:00,8.265000,-0.041420,
2025-10-16T06:08:34.024633+00:00,8.270000,-0.042180,
2025-10-16T06:08:34.029633+00:00,8.275000,-0.045980,
2025-10-16T06:08:34.034633+00:00,8.280000,-0.049020,
2025-10-16T06:08:34.039633+00:00,8.285000,-0.050920,
2025-10-16T06:08:34.044633+00:00,8.290000,-0.044460,
2025-10-16T06:08:34.049633+00:00,8.295000,-0.034960,
2025-10-16T06:08:34.054633+00:00,8.300000,-0.038380,
2025-10-16T06:08:34.059633+00:00,8.305000,-0.055480,
2025-10-16T06:08:34.064633+00:00,8.310000,-0.069920,
2025-10-16T06:08:34.069633+00:00,8.315000,-0.069540,
2025-10-16T06:08:34.074633+00:00,8.320000,-0.062320,
2025-10-16T06:08:34.079633+00:00,8.325000,-0.057760,
2025-10-16T06:08:34.084633+00:00,8.330000,-0.055860,
2025-10-16T06:08:34.089633+00:00,8.335000,-0.052440,
2025-10-16T06:08:34.094633+00:00,8.340000,-0.045220,
2025-10-16T06:08:34.099633+00:00,8.345000,-0.042940,
2025-10-16T06:08:34.104633+00:00,8.350000,-0.042560,
2025-10-16T06:08:34.109633+00:00,8.355000,-0.032300,
2025-10-16T06:08:34.114633+00:00,8.360000,-0.017860,
2025-10-16T06:08:34.119633+00:00,8.365000,-0.019380,
2025-10-16T06:08:34.124633+00:00,8.370000,-0.034960,
2025-10-16T06:08:34.129633+00:00,8.375000,-0.042180,
2025-10-16T06:08:34.134633+00:00,8.380000,-0.031540,
2025-10-16T06:08:34.139633+00:00,8.385000,-0.016720,
2025-10-16T06:08:34.144633+00:00,8.390000,-0.011020,
2025-10-16T06:08:34.149633+00:00,8.395000,-0.013680,
2025-10-16T06:08:34.154633+00:00,8.400000,-0.017100,
2025-10-16T06:08:34.159633+00:00,8.405000,-0.017100,
2025-10-16T06:08:34.164633+00:00,8.410000,-0.012160,
2025-10-16T06:08:34.169633+00:00,8.415000,-0.008360,
2025-10-16T06:08:34.174633+00:00,8.420000,-0.014440,
2025-10-16T06:08:34.179633+00:00,8.425000,-0.025460,
2025-10-16T06:08:34.184633+00:00,8.430000,-0.031160,
2025-10-16T06:08:34.189633+00:00,8.435000,-0.023940,
2025-10-16T06:08:34.194633+00:00,8.440000,-0.013680,
2025-10-16T06:08:34.199633+00:00,8.445000,-0.015960,
2025-10-16T06:08:34.204633+00:00,8.450000,-0.026980,
2025-10-16T06:08:34.209633+00:00,8.455000,-0.025460,
2025-10-16T06:08:34.214633+00:00,8.460000,-0.014440,
2025-10-16T06:08:34.219633+00:00,8.465000,-0.015960,
2025-10-16T06:08:34.224633+00:00,8.470000,-0.038380,
2025-10-16T06:08:34.229633+00:00,8.475000,-0.059660,
2025-10-16T06:08:34.234633+00:00,8.480000,-0.052820,
2025-10-16T06:08:34.239633+00:00,8.485000,-0.022040,
2025-10-16T06:08:34.244633+00:00,8.490000,-0.000760,
2025-10-16T06:08:34.249633+00:00,8.495000,-0.009500,
2025-10-16T06:08:34.254633+00:00,8.500000,-0.033820,
2025-10-16T06:08:34.259633+00:00,8.505000,-0.045220,
2025-10-16T06:08:34.264633+00:00,8.510000,-0.035720,
2025-10-16T06:08:34.269633+00:00,8.515000,-0.019760,
2025-10-16T06:08:34.274633+00:00,8.520000,-0.011780,
2025-10-16T06:08:34.279633+00:00,8.525000,-0.012920,
2025-10-16T06:08:34.284633+00:00,8.530000,-0.015200,
2025-10-16T06:08:34.289633+00:00,8.535000,-0.014820,
2025-10-16T06:08:34.294633+00:00,8.540000,-0.012160,
2025-10-16T06:08:34.299633+00:00,8.545000,-0.017860,
2025-10-16T06:08:34.304633+00:00,8.550000,-0.034960,
2025-10-16T06:08:34.309633+00:00,8.555000,-0.049020,
2025-10-16T06:08:34.314633+00:00,8.560000,-0.050160,
2025-10-16T06:08:34.319633+00:00,8.565000,-0.044460,
2025-10-16T06:08:34.324633+00:00,8.570000,-0.040660,
2025-10-16T06:08:34.329633+00:00,8.575000,-0.035340,
2025-10-16T06:08:34.334633+00:00,8.580000,-0.025460,
2025-10-16T06:08:34.339633+00:00,8.585000,-0.019760,
2025-10-16T06:08:34.344633+00:00,8.590000,-0.029640,
2025-10-16T06:08:34.349633+00:00,8.595000,-0.045220,
2025-10-16T06:08:34.354633+00:00,8.600000,-0.051680,
2025-10-16T06:08:34.359633+00:00,8.605000,-0.041040,
2025-10-16T06:08:34.364633+00:00,8.610000,-0.032300,
2025-10-16T06:08:34.369633+00:00,8.615000,-0.033060,
2025-10-16T06:08:34.374633+00:00,8.620000,-0.038000,
2025-10-16T06:08:34.379633+00:00,8.625000,-0.038380,
2025-10-16T06:08:34.384633+00:00,8.630000,-0.034960,
2025-10-16T06:08:34.389633+00:00,8.635000,-0.029640,
2025-10-16T06:08:34.394633+00:00,8.640000,-0.026600,
2025-10-16T06:08:34.399633+00:00,8.645000,-0.025840,
2025-10-16T06:08:34.404633+00:00,8.650000,-0.026600,
2025-10-16T06:08:34.409633+00:00,8.655000,-0.031160,
2025-10-16T06:08:34.414633+00:00,8.660000,-0.036860,
2025-10-16T06:08:34.419633+00:00,8.665000,-0.032680,
2025-10-16T06:08:34.424633+00:00,8.670000,-0.027740,
2025-10-16T06:08:34.429633+00:00,8.675000,-0.028880,
2025-10-16T06:08:34.434633+00:00,8.680000,-0.036100,
2025-10-16T06:08:34.439633+00:00,8.685000,-0.043320,
2025-10-16T06:08:34.444633+00:00,8.690000,-0.045220,
2025-10-16T06:08:34.449633+00:00,8.695000,-0.042560,
2025-10-16T06:08:34.454633+00:00,8.700000,-0.042180,
2025-10-16T06:08:34.459633+00:00,8.705000,-0.039900,
2025-10-16T06:08:34.464633+00:00,8.710000,-0.025460,
2025-10-16T06:08:34.469633+00:00,8.715000,-0.012540,
2025-10-16T06:08:34.474633+00:00,8.720000,-0.018240,
2025-10-16T06:08:34.479633+00:00,8.725000,-0.032300,
2025-10-16T06:08:34.484633+00:00,8.730000,-0.038380,
2025-10-16T06:08:34.489633+00:00,8.735000,-0.029640,
2025-10-16T06:08:34.494633+00:00,8.740000,-0.021660,
2025-10-16T06:08:34.499633+00:00,8.745000,-0.026220,
2025-10-16T06:08:34.504633+00:00,8.750000,-0.043320,
2025-10-16T06:08:34.509633+00:00,8.755000,-0.056620,
2025-10-16T06:08:34.514633+00:00,8.760000,-0.055100,
2025-10-16T06:08:34.519633+00:00,8.765000,-0.047880,
2025-10-16T06:08:34.524633+00:00,8.770000,-0.041800,
2025-10-16T06:08:34.529633+00:00,8.775000,-0.039900,
2025-10-16T06:08:34.534633+00:00,8.780000,-0.043320,
2025-10-16T06:08:34.539633+00:00,8.785000,-0.049020,
2025-10-16T06:08:34.544633+00:00,8.790000,-0.047500,
2025-10-16T06:08:34.549633+00:00,8.795000,-0.040280,
2025-10-16T06:08:34.554633+00:00,8.800000,-0.029260,
2025-10-16T06:08:34.559633+00:00,8.805000,-0.018240,
2025-10-16T06:08:34.564633+00:00,8.810000,-0.015200,
2025-10-16T06:08:34.569633+00:00,8.815000,-0.020140,
2025-10-16T06:08:34.574633+00:00,8.820000,-0.026220,
2025-10-16T06:08:34.579633+00:00,8.825000,-0.029640,
2025-10-16T06:08:34.584633+00:00,8.830000,-0.033060,
2025-10-16T06:08:34.589633+00:00,8.835000,-0.028120,
2025-10-16T06:08:34.594633+00:00,8.840000,-0.009880,
2025-10-16T06:08:34.599633+00:00,8.845000,0.002660,
2025-10-16T06:08:34.604633+00:00,8.850000,-0.006460,
2025-10-16T06:08:34.609633+00:00,8.855000,-0.029260,
2025-10-16T06:08:34.614633+00:00,8.860000,-0.040280,
2025-10-16T06:08:34.619633+00:00,8.865000,-0.031920,
2025-10-16T06:08:34.624633+00:00,8.870000,-0.017100,
2025-10-16T06:08:34.629633+00:00,8.875000,-0.012540,
2025-10-16T06:08:34.634633+00:00,8.880000,-0.017480,
2025-10-16T06:08:34.639633+00:00,8.885000,-0.028500,
2025-10-16T06:08:34.644633+00:00,8.890000,-0.039140,
2025-10-16T06:08:34.649633+00:00,8.895000,-0.045220,
2025-10-16T06:08:34.654633+00:00,8.900000,-0.040280,
2025-10-16T06:08:34.659633+00:00,8.905000,-0.033060,
2025-10-16T06:08:34.664633+00:00,8.910000,-0.033060,
2025-10-16T06:08:34.669633+00:00,8.915000,-0.038000,
2025-10-16T06:08:34.674633+00:00,8.920000,-0.038760,
2025-10-16T06:08:34.679633+00:00,8.925000,-0.036100,
2025-10-16T06:08:34.684633+00:00,8.930000,-0.034580,
2025-10-16T06:08:34.689633+00:00,8.935000,-0.034960,
2025-10-16T06:08:34.694633+00:00,8.940000,-0.032680,
2025-10-16T06:08:34.699633+00:00,8.945000,-0.035720,
2025-10-16T06:08:34.704633+00:00,8.950000,-0.039900,
2025-10-16T06:08:34.709633+00:00,8.955000,-0.039900,
2025-10-16T06:08:34.714633+00:00,8.960000,-0.038000,
2025-10-16T06:08:34.719633+00:00,8.965000,-0.043700,
2025-10-16T06:08:34.724633+00:00,8.970000,-0.055100,
2025-10-16T06:08:34.729633+00:00,8.975000,-0.057760,
2025-10-16T06:08:34.734633+00:00,8.980000,-0.045220,
2025-10-16T06:08:34.739633+00:00,8.985000,-0.030020,
2025-10-16T06:08:34.744633+00:00,8.990000,-0.021660,
2025-10-16T06:08:34.749633+00:00,8.995000,-0.019000,
2025-10-16T06:08:34.754633+00:00,9.000000,-0.017860,
2025-10-16T06:08:34.759633+00:00,9.005000,-0.024320,
2025-10-16T06:08:34.764633+00:00,9.010000,-0.041420,
2025-10-16T06:08:34.769633+00:00,9.015000,-0.057380,
2025-10-16T06:08:34.774633+00:00,9.020000,-0.051680,
2025-10-16T06:08:34.779633+00:00,9.025000,-0.031540,
2025-10-16T06:08:34.784633+00:00,9.030000,-0.022420,
2025-10-16T06:08:34.789633+00:00,9.035000,-0.034580,
2025-10-16T06:08:34.794633+00:00,9.040000,-0.046740,
2025-10-16T06:08:34.799633+00:00,9.045000,-0.041420,
2025-10-16T06:08:34.804633+00:00,9.050000,-0.029260,
2025-10-16T06:08:34.809633+00:00,9.055000,-0.025460,
2025-10-16T06:08:34.814633+00:00,9.060000,-0.033060,
2025-10-16T06:08:34.819633+00:00,9.065000,-0.049400,
2025-10-16T06:08:34.824633+00:00,9.070000,-0.065360,
2025-10-16T06:08:34.829633+00:00,9.075000,-0.067260,
2025-10-16T06:08:34.834633+00:00,9.080000,-0.053960,
2025-10-16T06:08:34.839633+00:00,9.085000,-0.042560,
2025-10-16T06:08:34.844633+00:00,9.090000,-0.043320,
2025-10-16T06:08:34.849633+00:00,9.095000,-0.049020,
2025-10-16T06:08:34.854633+00:00,9.100000,-0.045980,
2025-10-16T06:08:34.859633+00:00,9.105000,-0.039520,
2025-10-16T06:08:34.864633+00:00,9.110000,-0.043320,
2025-10-16T06:08:34.869633+00:00,9.115000,-0.044840,
2025-10-16T06:08:34.874633+00:00,9.120000,-0.034580,
2025-10-16T06:08:34.879633+00:00,9.125000,-0.027360,
2025-10-16T06:08:34.884633+00:00,9.130000,-0.037620,
2025-10-16T06:08:34.889633+00:00,9.135000,-0.047880,
2025-10-16T06:08:34.894633+00:00,9.140000,-0.045600,
2025-10-16T06:08:34.899633+00:00,9.145000,-0.045220,
2025-10-16T06:08:34.904633+00:00,9.150000,-0.061560,
2025-10-16T06:08:34.909633+00:00,9.155000,-0.071440,
2025-10-16T06:08:34.914633+00:00,9.160000,-0.058520,
2025-10-16T06:08:34.919633+00:00,9.165000,-0.036100,
2025-10-16T06:08:34.924633+00:00,9.170000,-0.029640,
2025-10-16T06:08:34.929633+00:00,9.175000,-0.037620,
2025-10-16T06:08:34.934633+00:00,9.180000,-0.037240,
2025-10-16T06:08:34.939633+00:00,9.185000,-0.025840,
2025-10-16T06:08:34.944633+00:00,9.190000,-0.014820,
2025-10-16T06:08:34.949633+00:00,9.195000,-0.018620,
2025-10-16T06:08:34.954633+00:00,9.200000,-0.030780,
2025-10-16T06:08:34.959633+00:00,9.205000,-0.037240,
2025-10-16T06:08:34.964633+00:00,9.210000,-0.037620,
2025-10-16T06:08:34.969633+00:00,9.215000,-0.039900,
2025-10-16T06:08:34.974633+00:00,9.220000,-0.043320,
2025-10-16T06:08:34.979633+00:00,9.225000,-0.045600,
2025-10-16T06:08:34.984633+00:00,9.230000,-0.038760,
2025-10-16T06:08:34.989633+00:00,9.235000,-0.028500,
2025-10-16T06:08:34.994633+00:00,9.240000,-0.023180,
2025-10-16T06:08:34.999633+00:00,9.245000,-0.027360,
2025-10-16T06:08:35.004633+00:00,9.250000,-0.033820,
2025-10-16T06:08:35.009633+00:00,9.255000,-0.041040,
2025-10-16T06:08:35.014633+00:00,9.260000,-0.046360,
2025-10-16T06:08:35.019633+00:00,9.265000,-0.051300,
2025-10-16T06:08:35.024633+00:00,9.270000,-0.047500,
2025-10-16T06:08:35.029633+00:00,9.275000,-0.030780,
2025-10-16T06:08:35.034633+00:00,9.280000,-0.011780,
2025-10-16T06:08:35.039633+00:00,9.285000,-0.005320,
2025-10-16T06:08:35.044633+00:00,9.290000,-0.013680,
2025-10-16T06:08:35.049633+00:00,9.295000,-0.026600,
2025-10-16T06:08:35.054633+00:00,9.300000,-0.030400,
2025-10-16T06:08:35.059633+00:00,9.305000,-0.024320,
2025-10-16T06:08:35.064633+00:00,9.310000,-0.025460,
2025-10-16T06:08:35.069633+00:00,9.315000,-0.037620,
2025-10-16T06:08:35.074633+00:00,9.320000,-0.044080,
2025-10-16T06:08:35.079633+00:00,9.325000,-0.041420,
2025-10-16T06:08:35.084633+00:00,9.330000,-0.041420,
2025-10-16T06:08:35.089633+00:00,9.335000,-0.053580,
2025-10-16T06:08:35.094633+00:00,9.340000,-0.063460,
2025-10-16T06:08:35.099633+00:00,9.345000,-0.049780,
2025-10-16T06:08:35.104633+00:00,9.350000,-0.018620,
2025-10-16T06:08:35.109633+00:00,9.355000,-0.000760,
2025-10-16T06:08:35.114633+00:00,9.360000,-0.015200,
2025-10-16T06:08:35.119633+00:00,9.365000,-0.049020,
2025-10-16T06:08:35.124633+00:00,9.370000,-0.072200,
2025-10-16T06:08:35.129633+00:00,9.375000,-0.077520,
2025-10-16T06:08:35.134633+00:00,9.380000,-0.078280,
2025-10-16T06:08:35.139633+00:00,9.385000,-0.086260,
2025-10-16T06:08:35.144633+00:00,9.390000,-0.085500,
2025-10-16T06:08:35.149633+00:00,9.395000,-0.064600,
2025-10-16T06:08:35.154633+00:00,9.400000,-0.039900,
2025-10-16T06:08:35.159633+00:00,9.405000,-0.028500,
2025-10-16T06:08:35.164633+00:00,9.410000,-0.028880,
2025-10-16T06:08:35.169633+00:00,9.415000,-0.030400,
2025-10-16T06:08:35.174633+00:00,9.420000,-0.033820,
2025-10-16T06:08:35.179633+00:00,9.425000,-0.042180,
2025-10-16T06:08:35.184633+00:00,9.430000,-0.052060,
2025-10-16T06:08:35.189633+00:00,9.435000,-0.047500,
2025-10-16T06:08:35.194633+00:00,9.440000,-0.030400,
2025-10-16T06:08:35.199633+00:00,9.445000,-0.020140,
2025-10-16T06:08:35.204633+00:00,9.450000,-0.031160,
2025-10-16T06:08:35.209633+00:00,9.455000,-0.052820,
2025-10-16T06:08:35.214633+00:00,9.460000,-0.069160,
2025-10-16T06:08:35.219633+00:00,9.465000,-0.073720,
2025-10-16T06:08:35.224633+00:00,9.470000,-0.065740,
2025-10-16T06:08:35.229633+00:00,9.475000,-0.052060,
2025-10-16T06:08:35.234633+00:00,9.480000,-0.045600,
2025-10-16T06:08:35.239633+00:00,9.485000,-0.039140,
2025-10-16T06:08:35.244633+00:00,9.490000,-0.026220,
2025-10-16T06:08:35.249633+00:00,9.495000,-0.011020,
2025-10-16T06:08:35.254633+00:00,9.500000,-0.011020,
2025-10-16T06:08:35.259633+00:00,9.505000,-0.025840,
2025-10-16T06:08:35.264633+00:00,9.510000,-0.041040,
2025-10-16T06:08:35.269633+00:00,9.515000,-0.037620,
2025-10-16T06:08:35.274633+00:00,9.520000,-0.021280,
2025-10-16T06:08:35.279633+00:00,9.525000,-0.015580,
2025-10-16T06:08:35.284633+00:00,9.530000,-0.026600,
2025-10-16T06:08:35.289633+00:00,9.535000,-0.037240,
2025-10-16T06:08:35.294633+00:00,9.540000,-0.036860,
2025-10-16T06:08:35.299633+00:00,9.545000,-0.030020,
2025-10-16T06:08:35.304633+00:00,9.550000,-0.032680,
2025-10-16T06:08:35.309633+00:00,9.555000,-0.043320,
2025-10-16T06:08:35.314633+00:00,9.560000,-0.050920,
2025-10-16T06:08:35.319633+00:00,9.565000,-0.052440,
2025-10-16T06:08:35.324633+00:00,9.570000,-0.054720,
2025-10-16T06:08:35.329633+00:00,9.575000,-0.053580,
2025-10-16T06:08:35.334633+00:00,9.580000,-0.046360,
2025-10-16T06:08:35.339633+00:00,9.585000,-0.037240,
2025-10-16T06:08:35.344633+00:00,9.590000,-0.036480,
2025-10-16T06:08:35.349633+00:00,9.595000,-0.044840,
2025-10-16T06:08:35.354633+00:00,9.600000,-0.058520,
2025-10-16T06:08:35.359633+00:00,9.605000,-0.061940,
2025-10-16T06:08:35.364633+00:00,9.610000,-0.060420,
2025-10-16T06:08:35.369633+00:00,9.615000,-0.065740,
2025-10-16T06:08:35.374633+00:00,9.620000,-0.069920,
2025-10-16T06:08:35.379633+00:00,9.625000,-0.060040,
2025-10-16T06:08:35.384633+00:00,9.630000,-0.045220,
2025-10-16T06:08:35.389633+00:00,9.635000,-0.042180,
2025-10-16T06:08:35.394633+00:00,9.640000,-0.051300,
2025-10-16T06:08:35.399633+00:00,9.645000,-0.057380,
2025-10-16T06:08:35.404633+00:00,9.650000,-0.052820,
2025-10-16T06:08:35.409633+00:00,9.655000,-0.045600,
2025-10-16T06:08:35.414633+00:00,9.660000,-0.045600,
2025-10-16T06:08:35.419633+00:00,9.665000,-0.047500,
2025-10-16T06:08:35.424633+00:00,9.670000,-0.044080,
2025-10-16T06:08:35.429633+00:00,9.675000,-0.041040,
2025-10-16T06:08:35.434633+00:00,9.680000,-0.044840,
2025-10-16T06:08:35.439633+00:00,9.685000,-0.050160,
2025-10-16T06:08:35.444633+00:00,9.690000,-0.049780,
2025-10-16T06:08:35.449633+00:00,9.695000,-0.045220,
2025-10-16T06:08:35.454633+00:00,9.700000,-0.043320,
2025-10-16T06:08:35.459633+00:00,9.705000,-0.040280,
2025-10-16T06:08:35.464633+00:00,9.710000,-0.036100,
2025-10-16T06:08:35.469633+00:00,9.715000,-0.038000,
2025-10-16T06:08:35.474633+00:00,9.720000,-0.050540,
2025-10-16T06:08:35.479633+00:00,9.725000,-0.060040,
2025-10-16T06:08:35.484633+00:00,9.730000,-0.054720,
2025-10-16T06:08:35.489633+00:00,9.735000,-0.041800,
2025-10-16T06:08:35.494633+00:00,9.740000,-0.039900,
2025-10-16T06:08:35.499633+00:00,9.745000,-0.049400,
2025-10-16T06:08:35.504633+00:00,9.750000,-0.052440,
2025-10-16T06:08:35.509633+00:00,9.755000,-0.045600,
2025-10-16T06:08:35.514633+00:00,9.760000,-0.043700,
2025-10-16T06:08:35.519633+00:00,9.765000,-0.050540,
2025-10-16T06:08:35.524633+00:00,9.770000,-0.053580,
2025-10-16T06:08:35.529633+00:00,9.775000,-0.046740,
2025-10-16T06:08:35.534633+00:00,9.780000,-0.038380,
2025-10-16T06:08:35.539633+00:00,9.785000,-0.037620,
2025-10-16T06:08:35.544633+00:00,9.790000,-0.043320,
2025-10-16T06:08:35.549633+00:00,9.795000,-0.050920,
2025-10-16T06:08:35.554633+00:00,9.800000,-0.060420,
2025-10-16T06:08:35.559633+00:00,9.805000,-0.066880,
2025-10-16T06:08:35.564633+00:00,9.810000,-0.063460,
2025-10-16T06:08:35.569633+00:00,9.815000,-0.052440,
2025-10-16T06:08:35.574633+00:00,9.820000,-0.046740,
2025-10-16T06:08:35.579633+00:00,9.825000,-0.057000,
2025-10-16T06:08:35.584633+00:00,9.830000,-0.071820,
2025-10-16T06:08:35.589633+00:00,9.835000,-0.077520,
2025-10-16T06:08:35.594633+00:00,9.840000,-0.072200,
2025-10-16T06:08:35.599633+00:00,9.845000,-0.062700,
2025-10-16T06:08:35.604633+00:00,9.850000,-0.057380,
2025-10-16T06:08:35.609633+00:00,9.855000,-0.056240,
2025-10-16T06:08:35.614633+00:00,9.860000,-0.054340,
2025-10-16T06:08:35.619633+00:00,9.865000,-0.052060,
2025-10-16T06:08:35.624633+00:00,9.870000,-0.051680,
2025-10-16T06:08:35.629633+00:00,9.875000,-0.050160,
2025-10-16T06:08:35.634633+00:00,9.880000,-0.046360,
2025-10-16T06:08:35.639633+00:00,9.885000,-0.041040,
2025-10-16T06:08:35.644633+00:00,9.890000,-0.039900,
2025-10-16T06:08:35.649633+00:00,9.895000,-0.044460,
2025-10-16T06:08:35.654633+00:00,9.900000,-0.049020,
2025-10-16T06:08:35.659633+00:00,9.905000,-0.045220,
2025-10-16T06:08:35.664633+00:00,9.910000,-0.036860,
2025-10-16T06:08:35.669633+00:00,9.915000,-0.039900,
2025-10-16T06:08:35.674633+00:00,9.920000,-0.048640,
2025-10-16T06:08:35.679633+00:00,9.925000,-0.052440,
2025-10-16T06:08:35.684633+00:00,9.930000,-0.052060,
2025-10-16T06:08:35.689633+00:00,9.935000,-0.049780,
2025-10-16T06:08:35.694633+00:00,9.940000,-0.044080,
2025-10-16T06:08:35.699633+00:00,9.945000,-0.038000,
2025-10-16T06:08:35.704633+00:00,9.950000,-0.036480,
2025-10-16T06:08:35.709633+00:00,9.955000,-0.042940,
2025-10-16T06:08:35.714633+00:00,9.960000,-0.047880,
2025-10-16T06:08:35.719633+00:00,9.965000,-0.044080,
2025-10-16T06:08:35.724633+00:00,9.970000,-0.034960,
2025-10-16T06:08:35.729633+00:00,9.975000,-0.033820,
2025-10-16T06:08:35.734633+00:00,9.980000,-0.044840,
2025-10-16T06:08:35.739633+00:00,9.985000,-0.057380,
2025-10-16T06:08:35.744633+00:00,9.990000,-0.060040,
2025-10-16T06:08:35.749633+00:00,9.995000,-0.051680,
2025-10-16T06:08:35.754633+00:00,10.000000,-0.041800,
2025-10-16T06:08:35.759633+00:00,10.005000,-0.038760,
2025-10-16T06:08:35.764633+00:00,10.010000,-0.043320,
2025-10-16T06:08:35.769633+00:00,10.015000,-0.052060,
2025-10-16T06:08:35.774633+00:00,10.020000,-0.056240,
2025-10-16T06:08:35.779633+00:00,10.025000,-0.052440,
2025-10-16T06:08:35.784633+00:00,10.030000,-0.045600,
2025-10-16T06:08:35.789633+00:00,10.035000,-0.041040,
2025-10-16T06:08:35.794633+00:00,10.040000,-0.038760,
2025-10-16T06:08:35.799633+00:00,10.045000,-0.041040,
2025-10-16T06:08:35.804633+00:00,10.050000,-0.045600,
2025-10-16T06:08:35.809633+00:00,10.055000,-0.048640,
2025-10-16T06:08:35.814633+00:00,10.060000,-0.047500,
2025-10-16T06:08:35.819633+00:00,10.065000,-0.045600,
2025-10-16T06:08:35.824633+00:00,10.070000,-0.049780,
2025-10-16T06:08:35.829633+00:00,10.075000,-0.057760,
2025-10-16T06:08:35.834633+00:00,10.080000,-0.063840,
2025-10-16T06:08:35.839633+00:00,10.085000,-0.063840,
2025-10-16T06:08:35.844633+00:00,10.090000,-0.060420,
2025-10-16T06:08:35.849633+00:00,10.095000,-0.053960,
2025-10-16T06:08:35.854633+00:00,10.100000,-0.049780,
2025-10-16T06:08:35.859633+00:00,10.105000,-0.056620,
2025-10-16T06:08:35.864633+00:00,10.110000,-0.072960,
2025-10-16T06:08:35.869633+00:00,10.115000,-0.082460,
2025-10-16T06:08:35.874633+00:00,10.120000,-0.074860,
2025-10-16T06:08:35.879633+00:00,10.125000,-0.061180,
2025-10-16T06:08:35.884633+00:00,10.130000,-0.058520,
2025-10-16T06:08:35.889633+00:00,10.135000,-0.064980,
2025-10-16T06:08:35.894633+00:00,10.140000,-0.067260,
2025-10-16T06:08:35.899633+00:00,10.145000,-0.063840,
2025-10-16T06:08:35.904633+00:00,10.150000,-0.058520,
2025-10-16T06:08:35.909633+00:00,10.155000,-0.054340,
2025-10-16T06:08:35.914633+00:00,10.160000,-0.052820,
2025-10-16T06:08:35.919633+00:00,10.165000,-0.048640,
2025-10-16T06:08:35.924633+00:00,10.170000,-0.039520,
2025-10-16T06:08:35.929633+00:00,10.175000,-0.030780,
2025-10-16T06:08:35.934633+00:00,10.180000,-0.033060,
2025-10-16T06:08:35.939633+00:00,10.185000,-0.048260,
2025-10-16T06:08:35.944633+00:00,10.190000,-0.063080,
2025-10-16T06:08:35.949633+00:00,10.195000,-0.063840,
2025-10-16T06:08:35.954633+00:00,10.200000,-0.050920,
2025-10-16T06:08:35.959633+00:00,10.205000,-0.038380,
2025-10-16T06:08:35.964633+00:00,10.210000,-0.034960,
2025-10-16T06:08:35.969633+00:00,10.215000,-0.036100,
2025-10-16T06:08:35.974633+00:00,10.220000,-0.045220,
2025-10-16T06:08:35.979633+00:00,10.225000,-0.053200,
2025-10-16T06:08:35.984633+00:00,10.230000,-0.051300,
2025-10-16T06:08:35.989633+00:00,10.235000,-0.045220,
2025-10-16T06:08:35.994633+00:00,10.240000,-0.044840,
2025-10-16T06:08:35.999633+00:00,10.245000,-0.050920,
2025-10-16T06:08:36.004633+00:00,10.250000,-0.055480,
2025-10-16T06:08:36.009633+00:00,10.255000,-0.051300,
2025-10-16T06:08:36.014633+00:00,10.260000,-0.041040,
2025-10-16T06:08:36.019633+00:00,10.265000,-0.036100,
2025-10-16T06:08:36.024633+00:00,10.270000,-0.042940,
2025-10-16T06:08:36.029633+00:00,10.275000,-0.050920,
2025-10-16T06:08:36.034633+00:00,10.280000,-0.050920,
2025-10-16T06:08:36.039633+00:00,10.285000,-0.048640,
2025-10-16T06:08:36.044633+00:00,10.290000,-0.047120,
2025-10-16T06:08:36.049633+00:00,10.295000,-0.048640,
2025-10-16T06:08:36.054633+00:00,10.300000,-0.048260,
2025-10-16T06:08:36.059633+00:00,10.305000,-0.039140,
2025-10-16T06:08:36.064633+00:00,10.310000,-0.030400,
2025-10-16T06:08:36.069633+00:00,10.315000,-0.032680,
2025-10-16T06:08:36.074633+00:00,10.320000,-0.037240,
2025-10-16T06:08:36.079633+00:00,10.325000,-0.035340,
2025-10-16T06:08:36.084633+00:00,10.330000,-0.025460,
2025-10-16T06:08:36.089633+00:00,10.335000,-0.019380,
2025-10-16T06:08:36.094633+00:00,10.340000,-0.023560,
2025-10-16T06:08:36.099633+00:00,10.345000,-0.037620,
2025-10-16T06:08:36.104633+00:00,10.350000,-0.046740,
2025-10-16T06:08:36.109633+00:00,10.355000,-0.040660,
2025-10-16T06:08:36.114633+00:00,10.360000,-0.030020,
2025-10-16T06:08:36.119633+00:00,10.365000,-0.033060,
2025-10-16T06:08:36.124633+00:00,10.370000,-0.045980,
2025-10-16T06:08:36.129633+00:00,10.375000,-0.058520,
2025-10-16T06:08:36.134633+00:00,10.380000,-0.061560,
2025-10-16T06:08:36.139633+00:00,10.385000,-0.053200,
2025-10-16T06:08:36.144633+00:00,10.390000,-0.039900,
2025-10-16T06:08:36.149633+00:00,10.395000,-0.031540,
2025-10-16T06:08:36.154633+00:00,10.400000,-0.036860,
2025-10-16T06:08:36.159633+00:00,10.405000,-0.050160,
2025-10-16T06:08:36.164633+00:00,10.410000,-0.063080,
2025-10-16T06:08:36.169633+00:00,10.415000,-0.066880,
2025-10-16T06:08:36.174633+00:00,10.420000,-0.059660,
2025-10-16T06:08:36.179633+00:00,10.425000,-0.049400,
2025-10-16T06:08:36.184633+00:00,10.430000,-0.047120,
2025-10-16T06:08:36.189633+00:00,10.435000,-0.053580,
2025-10-16T06:08:36.194633+00:00,10.440000,-0.053960,
2025-10-16T06:08:36.199633+00:00,10.445000,-0.049400,
2025-10-16T06:08:36.204633+00:00,10.450000,-0.047880,
2025-10-16T06:08:36.209633+00:00,10.455000,-0.048640,
2025-10-16T06:08:36.214633+00:00,10.460000,-0.048260,
2025-10-16T06:08:36.219633+00:00,10.465000,-0.050920,
2025-10-16T06:08:36.224633+00:00,10.470000,-0.058900,
2025-10-16T06:08:36.229633+00:00,10.475000,-0.068020,
2025-10-16T06:08:36.234633+00:00,10.480000,-0.070300,
2025-10-16T06:08:36.239633+00:00,10.485000,-0.069540,
2025-10-16T06:08:36.244633+00:00,10.490000,-0.071440,
2025-10-16T06:08:36.249633+00:00,10.495000,-0.068400,
2025-10-16T06:08:36.254633+00:00,10.500000,-0.053960,
2025-10-16T06:08:36.259633+00:00,10.505000,-0.038000,
2025-10-16T06:08:36.264633+00:00,10.510000,-0.040660,
2025-10-16T06:08:36.269633+00:00,10.515000,-0.051680,
2025-10-16T06:08:36.274633+00:00,10.520000,-0.048260,
2025-10-16T06:08:36.279633+00:00,10.525000,-0.031920,
2025-10-16T06:08:36.284633+00:00,10.530000,-0.023940,
2025-10-16T06:08:36.289633+00:00,10.535000,-0.035720,
2025-10-16T06:08:36.294633+00:00,10.540000,-0.054340,
2025-10-16T06:08:36.299633+00:00,10.545000,-0.066500,
2025-10-16T06:08:36.304633+00:00,10.550000,-0.068400,
2025-10-16T06:08:36.309633+00:00,10.555000,-0.058520,
2025-10-16T06:08:36.314633+00:00,10.560000,-0.042940,
2025-10-16T06:08:36.319633+00:00,10.565000,-0.028880,
2025-10-16T06:08:36.324633+00:00,10.570000,-0.028120,
2025-10-16T06:08:36.329633+00:00,10.575000,-0.042940,
2025-10-16T06:08:36.334633+00:00,10.580000,-0.062700,
2025-10-16T06:08:36.339633+00:00,10.585000,-0.069920,
2025-10-16T06:08:36.344633+00:00,10.590000,-0.060800,
2025-10-16T06:08:36.349633+00:00,10.595000,-0.047880,
2025-10-16T06:08:36.354633+00:00,10.600000,-0.046740,
2025-10-16T06:08:36.359633+00:00,10.605000,-0.052440,
2025-10-16T06:08:36.364633+00:00,10.610000,-0.054720,
2025-10-16T06:08:36.369633+00:00,10.615000,-0.051680,
2025-10-16T06:08:36.374633+00:00,10.620000,-0.047120,
2025-10-16T06:08:36.379633+00:00,10.625000,-0.042560,
2025-10-16T06:08:36.384633+00:00,10.630000,-0.042940,
2025-10-16T06:08:36.389633+00:00,10.635000,-0.042940,
2025-10-16T06:08:36.394633+00:00,10.640000,-0.043320,
2025-10-16T06:08:36.399633+00:00,10.645000,-0.047880,
2025-10-16T06:08:36.404633+00:00,10.650000,-0.054340,
2025-10-16T06:08:36.409633+00:00,10.655000,-0.057760,
2025-10-16T06:08:36.414633+00:00,10.660000,-0.055480,
2025-10-16T06:08:36.419633+00:00,10.665000,-0.053580,
2025-10-16T06:08:36.424633+00:00,10.670000,-0.053960,
2025-10-16T06:08:36.429633+00:00,10.675000,-0.055100,
2025-10-16T06:08:36.434633+00:00,10.680000,-0.053960,
2025-10-16T06:08:36.439633+00:00,10.685000,-0.050920,
2025-10-16T06:08:36.444633+00:00,10.690000,-0.052820,
2025-10-16T06:08:36.449633+00:00,10.695000,-0.056620,
2025-10-16T06:08:36.454633+00:00,10.700000,-0.056240,
2025-10-16T06:08:36.459633+00:00,10.705000,-0.045220,
2025-10-16T06:08:36.464633+00:00,10.710000,-0.033060,
2025-10-16T06:08:36.469633+00:00,10.715000,-0.032680,
2025-10-16T06:08:36.474633+00:00,10.720000,-0.048640,
2025-10-16T06:08:36.479633+00:00,10.725000,-0.066120,
2025-10-16T06:08:36.484633+00:00,10.730000,-0.071440,
2025-10-16T06:08:36.489633+00:00,10.735000,-0.063080,
2025-10-16T06:08:36.494633+00:00,10.740000,-0.055860,
2025-10-16T06:08:36.499633+00:00,10.745000,-0.058520,
2025-10-16T06:08:36.504633+00:00,10.750000,-0.070300,COUNT_START|trial=1
2025-10-16T06:08:36.509633+00:00,10.755000,-0.081320,
2025-10-16T06:08:36.514633+00:00,10.760000,-0.081320,
2025-10-16T06:08:36.519633+00:00,10.765000,-0.066500,
2025-10-16T06:08:36.524633+00:00,10.770000,-0.041800,
2025-10-16T06:08:36.529633+00:00,10.775000,-0.028120,
2025-10-16T06:08:36.534633+00:00,10.780000,-0.034960,
2025-10-16T06:08:36.539633+00:00,10.785000,-0.047120,
2025-10-16T06:08:36.544633+00:00,10.790000,-0.048260,
2025-10-16T06:08:36.549633+00:00,10.795000,-0.042940,
2025-10-16T06:08:36.554633+00:00,10.800000,-0.043320,
2025-10-16T06:08:36.559633+00:00,10.805000,-0.046360,
2025-10-16T06:08:36.564633+00:00,10.810000,-0.045600,
2025-10-16T06:08:36.569633+00:00,10.815000,-0.045600,
2025-10-16T06:08:36.574633+00:00,10.820000,-0.045980,
2025-10-16T06:08:36.579633+00:00,10.825000,-0.045980,
2025-10-16T06:08:36.584633+00:00,10.830000,-0.045980,
2025-10-16T06:08:36.589633+00:00,10.835000,-0.050160,
2025-10-16T06:08:36.594633+00:00,10.840000,-0.053580,
2025-10-16T06:08:36.599633+00:00,10.845000,-0.049780,
2025-10-16T06:08:36.604633+00:00,10.850000,-0.040660,
2025-10-16T06:08:36.609633+00:00,10.855000,-0.035340,
2025-10-16T06:08:36.614633+00:00,10.860000,-0.037620,
2025-10-16T06:08:36.619633+00:00,10.865000,-0.041040,
2025-10-16T06:08:36.624633+00:00,10.870000,-0.037620,
2025-10-16T06:08:36.629633+00:00,10.875000,-0.036480,
2025-10-16T06:08:36.634633+00:00,10.880000,-0.039520,
2025-10-16T06:08:36.639633+00:00,10.885000,-0.044460,
2025-10-16T06:08:36.644633+00:00,10.890000,-0.050540,
2025-10-16T06:08:36.649633+00:00,10.895000,-0.057760,
2025-10-16T06:08:36.654633+00:00,10.900000,-0.062320,
2025-10-16T06:08:36.659633+00:00,10.905000,-0.055100,
2025-10-16T06:08:36.664633+00:00,10.910000,-0.035340,
2025-10-16T06:08:36.669633+00:00,10.915000,-0.016720,
2025-10-16T06:08:36.674633+00:00,10.920000,-0.016340,
2025-10-16T06:08:36.679633+00:00,10.925000,-0.028120,
2025-10-16T06:08:36.684633+00:00,10.930000,-0.036480,
2025-10-16T06:08:36.689633+00:00,10.935000,-0.032300,
2025-10-16T06:08:36.694633+00:00,10.940000,-0.025080,
2025-10-16T06:08:36.699633+00:00,10.945000,-0.027360,
2025-10-16T06:08:36.704633+00:00,10.950000,-0.040280,
2025-10-16T06:08:36.709633+00:00,10.955000,-0.049400,
2025-10-16T06:08:36.714633+00:00,10.960000,-0.043700,
2025-10-16T06:08:36.719633+00:00,10.965000,-0.028120,
2025-10-16T06:08:36.724633+00:00,10.970000,-0.015580,
2025-10-16T06:08:36.729633+00:00,10.975000,-0.015200,
2025-10-16T06:08:36.734633+00:00,10.980000,-0.030020,
2025-10-16T06:08:36.739633+00:00,10.985000,-0.043320,
2025-10-16T06:08:36.744633+00:00,10.990000,-0.043700,
2025-10-16T06:08:36.749633+00:00,10.995000,-0.033820,
2025-10-16T06:08:36.754633+00:00,11.000000,-0.029640,
2025-10-16T06:08:36.759633+00:00,11.005000,-0.034580,
2025-10-16T06:08:36.764633+00:00,11.010000,-0.045600,
2025-10-16T06:08:36.769633+00:00,11.015000,-0.051300,
2025-10-16T06:08:36.774633+00:00,11.020000,-0.044460,
2025-10-16T06:08:36.779633+00:00,11.025000,-0.028120,
2025-10-16T06:08:36.784633+00:00,11.030000,-0.017480,
2025-10-16T06:08:36.789633+00:00,11.035000,-0.024700,
2025-10-16T06:08:36.794633+00:00,11.040000,-0.042940,
2025-10-16T06:08:36.799633+00:00,11.045000,-0.047880,
2025-10-16T06:08:36.804633+00:00,11.050000,-0.033820,
2025-10-16T06:08:36.809633+00:00,11.055000,-0.021660,
2025-10-16T06:08:36.814633+00:00,11.060000,-0.024700,
2025-10-16T06:08:36.819633+00:00,11.065000,-0.034200,
2025-10-16T06:08:36.824633+00:00,11.070000,-0.034580,
2025-10-16T06:08:36.829633+00:00,11.075000,-0.024700,
2025-10-16T06:08:36.834633+00:00,11.080000,-0.016720,
2025-10-16T06:08:36.839633+00:00,11.085000,-0.017860,
2025-10-16T06:08:36.844633+00:00,11.090000,-0.025080,
2025-10-16T06:08:36.849633+00:00,11.095000,-0.035720,
2025-10-16T06:08:36.854633+00:00,11.100000,-0.045220,
2025-10-16T06:08:36.859633+00:00,11.105000,-0.052060,
2025-10-16T06:08:36.864633+00:00,11.110000,-0.053580,
2025-10-16T06:08:36.869633+00:00,11.115000,-0.052820,
2025-10-16T06:08:36.874633+00:00,11.120000,-0.050540,
2025-10-16T06:08:36.879633+00:00,11.125000,-0.046360,
2025-10-16T06:08:36.884633+00:00,11.130000,-0.044460,
2025-10-16T06:08:36.889633+00:00,11.135000,-0.041800,
2025-10-16T06:08:36.894633+00:00,11.140000,-0.033820,
2025-10-16T06:08:36.899633+00:00,11.145000,-0.024700,
2025-10-16T06:08:36.904633+00:00,11.150000,-0.019760,
2025-10-16T06:08:36.909633+00:00,11.155000,-0.022040,
2025-10-16T06:08:36.914633+00:00,11.160000,-0.026600,
2025-10-16T06:08:36.919633+00:00,11.165000,-0.039900,
2025-10-16T06:08:36.924633+00:00,11.170000,-0.053580,
2025-10-16T06:08:36.929633+00:00,11.175000,-0.055480,
2025-10-16T06:08:36.934633+00:00,11.180000,-0.043320,
2025-10-16T06:08:36.939633+00:00,11.185000,-0.028120,
2025-10-16T06:08:36.944633+00:00,11.190000,-0.025840,
2025-10-16T06:08:36.949633+00:00,11.195000,-0.038380,
2025-10-16T06:08:36.954633+00:00,11.200000,-0.052060,
2025-10-16T06:08:36.959633+00:00,11.205000,-0.054340,
2025-10-16T06:08:36.964633+00:00,11.210000,-0.048640,
2025-10-16T06:08:36.969633+00:00,11.215000,-0.040280,
2025-10-16T06:08:36.974633+00:00,11.220000,-0.033060,
2025-10-16T06:08:36.979633+00:00,11.225000,-0.031920,
2025-10-16T06:08:36.984633+00:00,11.230000,-0.037620,
2025-10-16T06:08:36.989633+00:00,11.235000,-0.041040,
2025-10-16T06:08:36.994633+00:00,11.240000,-0.038760,
2025-10-16T06:08:36.999633+00:00,11.245000,-0.034580,
2025-10-16T06:08:37.004633+00:00,11.250000,-0.034960,
2025-10-16T06:08:37.009633+00:00,11.255000,-0.038000,
2025-10-16T06:08:37.014633+00:00,11.260000,-0.036480,
2025-10-16T06:08:37.019633+00:00,11.265000,-0.032680,
2025-10-16T06:08:37.024633+00:00,11.270000,-0.030780,
2025-10-16T06:08:37.029633+00:00,11.275000,-0.034200,
2025-10-16T06:08:37.034633+00:00,11.280000,-0.043320,
2025-10-16T06:08:37.039633+00:00,11.285000,-0.050540,
2025-10-16T06:08:37.044633+00:00,11.290000,-0.045980,
2025-10-16T06:08:37.049633+00:00,11.295000,-0.033820,
2025-10-16T06:08:37.054633+00:00,11.300000,-0.022800,
